"Cycle 2:Pt #002:Co2p Scan"
,Characteristic Energy eV,1.486680e+003,Acquisition Time s,1.250000e+000
Name,,
Position,,
FWHM,,
Area,,
Lineshape,,
K.E.,Counts,Background,Envelope,,B.E.,CPS,Background CPS,Envelope CPS
6.719620e+002,2.303550e+004,2.303550e+004,2.303550e+004,,8.147180e+002,1.842840e+004,1.842840e+004,1.842840e+004
6.720620e+002,2.302100e+004,2.302100e+004,2.302100e+004,,8.146180e+002,1.841680e+004,1.841680e+004,1.841680e+004
6.721620e+002,2.305660e+004,2.305660e+004,2.305660e+004,,8.145180e+002,1.844528e+004,1.844528e+004,1.844528e+004
6.722620e+002,2.307210e+004,2.307210e+004,2.307210e+004,,8.144180e+002,1.845768e+004,1.845768e+004,1.845768e+004
6.723620e+002,2.278790e+004,2.278790e+004,2.278790e+004,,8.143180e+002,1.823032e+004,1.823032e+004,1.823032e+004
6.724620e+002,2.290950e+004,2.290950e+004,2.290950e+004,,8.142180e+002,1.832760e+004,1.832760e+004,1.832760e+004
6.725620e+002,2.327460e+004,2.327460e+004,2.327460e+004,,8.141180e+002,1.861968e+004,1.861968e+004,1.861968e+004
6.726620e+002,2.276720e+004,2.276720e+004,2.276720e+004,,8.140180e+002,1.821376e+004,1.821376e+004,1.821376e+004
6.727620e+002,2.305500e+004,2.305500e+004,2.305500e+004,,8.139180e+002,1.844400e+004,1.844400e+004,1.844400e+004
6.728620e+002,2.286520e+004,2.286520e+004,2.286520e+004,,8.138180e+002,1.829216e+004,1.829216e+004,1.829216e+004
6.729620e+002,2.287370e+004,2.287370e+004,2.287370e+004,,8.137180e+002,1.829896e+004,1.829896e+004,1.829896e+004
6.730620e+002,2.286570e+004,2.286570e+004,2.286570e+004,,8.136180e+002,1.829256e+004,1.829256e+004,1.829256e+004
6.731620e+002,2.252790e+004,2.252790e+004,2.252790e+004,,8.135180e+002,1.802232e+004,1.802232e+004,1.802232e+004
6.732620e+002,2.279680e+004,2.279680e+004,2.279680e+004,,8.134180e+002,1.823744e+004,1.823744e+004,1.823744e+004
6.733620e+002,2.290240e+004,2.290240e+004,2.290240e+004,,8.133180e+002,1.832192e+004,1.832192e+004,1.832192e+004
6.734620e+002,2.297350e+004,2.297350e+004,2.297350e+004,,8.132180e+002,1.837880e+004,1.837880e+004,1.837880e+004
6.735620e+002,2.263330e+004,2.263330e+004,2.263330e+004,,8.131180e+002,1.810664e+004,1.810664e+004,1.810664e+004
6.736620e+002,2.270790e+004,2.270790e+004,2.270790e+004,,8.130180e+002,1.816632e+004,1.816632e+004,1.816632e+004
6.737620e+002,2.270200e+004,2.270200e+004,2.270200e+004,,8.129180e+002,1.816160e+004,1.816160e+004,1.816160e+004
6.738620e+002,2.268640e+004,2.268640e+004,2.268640e+004,,8.128180e+002,1.814912e+004,1.814912e+004,1.814912e+004
6.739620e+002,2.267040e+004,2.267040e+004,2.267040e+004,,8.127180e+002,1.813632e+004,1.813632e+004,1.813632e+004
6.740620e+002,2.310630e+004,2.310630e+004,2.310630e+004,,8.126180e+002,1.848504e+004,1.848504e+004,1.848504e+004
6.741620e+002,2.300380e+004,2.300380e+004,2.300380e+004,,8.125180e+002,1.840304e+004,1.840304e+004,1.840304e+004
6.742620e+002,2.280620e+004,2.280620e+004,2.280620e+004,,8.124180e+002,1.824496e+004,1.824496e+004,1.824496e+004
6.743620e+002,2.263570e+004,2.263570e+004,2.263570e+004,,8.123180e+002,1.810856e+004,1.810856e+004,1.810856e+004
6.744620e+002,2.265170e+004,2.265170e+004,2.265170e+004,,8.122180e+002,1.812136e+004,1.812136e+004,1.812136e+004
6.745620e+002,2.278050e+004,2.278050e+004,2.278050e+004,,8.121180e+002,1.822440e+004,1.822440e+004,1.822440e+004
6.746620e+002,2.273850e+004,2.273850e+004,2.273850e+004,,8.120180e+002,1.819080e+004,1.819080e+004,1.819080e+004
6.747620e+002,2.265260e+004,2.265260e+004,2.265260e+004,,8.119180e+002,1.812208e+004,1.812208e+004,1.812208e+004
6.748620e+002,2.298230e+004,2.298230e+004,2.298230e+004,,8.118180e+002,1.838584e+004,1.838584e+004,1.838584e+004
6.749620e+002,2.272090e+004,2.272090e+004,2.272090e+004,,8.117180e+002,1.817672e+004,1.817672e+004,1.817672e+004
6.750620e+002,2.292310e+004,2.292310e+004,2.292310e+004,,8.116180e+002,1.833848e+004,1.833848e+004,1.833848e+004
6.751620e+002,2.261250e+004,2.261250e+004,2.261250e+004,,8.115180e+002,1.809000e+004,1.809000e+004,1.809000e+004
6.752620e+002,2.276840e+004,2.276840e+004,2.276840e+004,,8.114180e+002,1.821472e+004,1.821472e+004,1.821472e+004
6.753620e+002,2.263900e+004,2.263900e+004,2.263900e+004,,8.113180e+002,1.811120e+004,1.811120e+004,1.811120e+004
6.754620e+002,2.281220e+004,2.281220e+004,2.281220e+004,,8.112180e+002,1.824976e+004,1.824976e+004,1.824976e+004
6.755620e+002,2.261410e+004,2.261410e+004,2.261410e+004,,8.111180e+002,1.809128e+004,1.809128e+004,1.809128e+004
6.756620e+002,2.252590e+004,2.252590e+004,2.252590e+004,,8.110180e+002,1.802072e+004,1.802072e+004,1.802072e+004
6.757620e+002,2.271020e+004,2.271020e+004,2.271020e+004,,8.109180e+002,1.816816e+004,1.816816e+004,1.816816e+004
6.758620e+002,2.269050e+004,2.269050e+004,2.269050e+004,,8.108180e+002,1.815240e+004,1.815240e+004,1.815240e+004
6.759620e+002,2.259790e+004,2.259790e+004,2.259790e+004,,8.107180e+002,1.807832e+004,1.807832e+004,1.807832e+004
6.760620e+002,2.254420e+004,2.254420e+004,2.254420e+004,,8.106180e+002,1.803536e+004,1.803536e+004,1.803536e+004
6.761620e+002,2.251250e+004,2.251250e+004,2.251250e+004,,8.105180e+002,1.801000e+004,1.801000e+004,1.801000e+004
6.762620e+002,2.260170e+004,2.260170e+004,2.260170e+004,,8.104180e+002,1.808136e+004,1.808136e+004,1.808136e+004
6.763620e+002,2.249040e+004,2.249040e+004,2.249040e+004,,8.103180e+002,1.799232e+004,1.799232e+004,1.799232e+004
6.764620e+002,2.229890e+004,2.229890e+004,2.229890e+004,,8.102180e+002,1.783912e+004,1.783912e+004,1.783912e+004
6.765620e+002,2.230400e+004,2.230400e+004,2.230400e+004,,8.101180e+002,1.784320e+004,1.784320e+004,1.784320e+004
6.766620e+002,2.256920e+004,2.256920e+004,2.256920e+004,,8.100180e+002,1.805536e+004,1.805536e+004,1.805536e+004
6.767620e+002,2.263790e+004,2.263790e+004,2.263790e+004,,8.099180e+002,1.811032e+004,1.811032e+004,1.811032e+004
6.768620e+002,2.237360e+004,2.237360e+004,2.237360e+004,,8.098180e+002,1.789888e+004,1.789888e+004,1.789888e+004
6.769620e+002,2.262980e+004,2.262980e+004,2.262980e+004,,8.097180e+002,1.810384e+004,1.810384e+004,1.810384e+004
6.770620e+002,2.265000e+004,2.265000e+004,2.265000e+004,,8.096180e+002,1.812000e+004,1.812000e+004,1.812000e+004
6.771620e+002,2.245180e+004,2.245180e+004,2.245180e+004,,8.095180e+002,1.796144e+004,1.796144e+004,1.796144e+004
6.772620e+002,2.264250e+004,2.252642e+004,2.252642e+004,,8.094180e+002,1.811400e+004,1.802114e+004,1.802114e+004
6.773620e+002,2.233900e+004,2.252554e+004,2.252554e+004,,8.093180e+002,1.787120e+004,1.802043e+004,1.802043e+004
6.774620e+002,2.273510e+004,2.252454e+004,2.252454e+004,,8.092180e+002,1.818808e+004,1.801963e+004,1.801963e+004
6.775620e+002,2.271080e+004,2.252365e+004,2.252365e+004,,8.091180e+002,1.816864e+004,1.801892e+004,1.801892e+004
6.776620e+002,2.228170e+004,2.252251e+004,2.252251e+004,,8.090180e+002,1.782536e+004,1.801800e+004,1.801800e+004
6.777620e+002,2.234450e+004,2.252167e+004,2.252167e+004,,8.089180e+002,1.787560e+004,1.801733e+004,1.801733e+004
6.778620e+002,2.250490e+004,2.252159e+004,2.252159e+004,,8.088180e+002,1.800392e+004,1.801727e+004,1.801727e+004
6.779620e+002,2.237780e+004,2.252091e+004,2.252091e+004,,8.087180e+002,1.790224e+004,1.801673e+004,1.801673e+004
6.780620e+002,2.250300e+004,2.252082e+004,2.252082e+004,,8.086180e+002,1.800240e+004,1.801666e+004,1.801666e+004
6.781620e+002,2.247870e+004,2.252062e+004,2.252062e+004,,8.085180e+002,1.798296e+004,1.801650e+004,1.801650e+004
6.782620e+002,2.279440e+004,2.251932e+004,2.251932e+004,,8.084180e+002,1.823552e+004,1.801545e+004,1.801545e+004
6.783620e+002,2.262570e+004,2.251881e+004,2.251881e+004,,8.083180e+002,1.810056e+004,1.801505e+004,1.801505e+004
6.784620e+002,2.243400e+004,2.251841e+004,2.251841e+004,,8.082180e+002,1.794720e+004,1.801473e+004,1.801473e+004
6.785620e+002,2.236560e+004,2.251769e+004,2.251769e+004,,8.081180e+002,1.789248e+004,1.801415e+004,1.801415e+004
6.786620e+002,2.254160e+004,2.251757e+004,2.251757e+004,,8.080180e+002,1.803328e+004,1.801406e+004,1.801406e+004
6.787620e+002,2.277190e+004,2.251636e+004,2.251636e+004,,8.079180e+002,1.821752e+004,1.801309e+004,1.801309e+004
6.788620e+002,2.255530e+004,2.251618e+004,2.251618e+004,,8.078180e+002,1.804424e+004,1.801294e+004,1.801294e+004
6.789620e+002,2.244480e+004,2.251584e+004,2.251584e+004,,8.077180e+002,1.795584e+004,1.801267e+004,1.801267e+004
6.790620e+002,2.246110e+004,2.251558e+004,2.251558e+004,,8.076180e+002,1.796888e+004,1.801246e+004,1.801246e+004
6.791620e+002,2.273700e+004,2.251452e+004,2.251452e+004,,8.075180e+002,1.818960e+004,1.801162e+004,1.801162e+004
6.792620e+002,2.315520e+004,2.251147e+004,2.251147e+004,,8.074180e+002,1.852416e+004,1.800917e+004,1.800917e+004
6.793620e+002,2.270030e+004,2.251057e+004,2.251057e+004,,8.073180e+002,1.816024e+004,1.800845e+004,1.800845e+004
6.794620e+002,2.255780e+004,2.251034e+004,2.251034e+004,,8.072180e+002,1.804624e+004,1.800827e+004,1.800827e+004
6.795620e+002,2.265100e+004,2.250967e+004,2.250967e+004,,8.071180e+002,1.812080e+004,1.800774e+004,1.800774e+004
6.796620e+002,2.271590e+004,2.250869e+004,2.250869e+004,,8.070180e+002,1.817272e+004,1.800695e+004,1.800695e+004
6.797620e+002,2.290260e+004,2.250681e+004,2.250681e+004,,8.069180e+002,1.832208e+004,1.800545e+004,1.800545e+004
6.798620e+002,2.309030e+004,2.250403e+004,2.250403e+004,,8.068180e+002,1.847224e+004,1.800322e+004,1.800322e+004
6.799620e+002,2.305780e+004,2.250139e+004,2.250139e+004,,8.067180e+002,1.844624e+004,1.800111e+004,1.800111e+004
6.800620e+002,2.281570e+004,2.249989e+004,2.249989e+004,,8.066180e+002,1.825256e+004,1.799991e+004,1.799991e+004
6.801620e+002,2.276980e+004,2.249860e+004,2.249860e+004,,8.065180e+002,1.821584e+004,1.799888e+004,1.799888e+004
6.802620e+002,2.263270e+004,2.249796e+004,2.249796e+004,,8.064180e+002,1.810616e+004,1.799837e+004,1.799837e+004
6.803620e+002,2.316300e+004,2.249479e+004,2.249479e+004,,8.063180e+002,1.853040e+004,1.799583e+004,1.799583e+004
6.804620e+002,2.304700e+004,2.249216e+004,2.249216e+004,,8.062180e+002,1.843760e+004,1.799372e+004,1.799372e+004
6.805620e+002,2.304610e+004,2.248951e+004,2.248951e+004,,8.061180e+002,1.843688e+004,1.799161e+004,1.799161e+004
6.806620e+002,2.320250e+004,2.248611e+004,2.248611e+004,,8.060180e+002,1.856200e+004,1.798889e+004,1.798889e+004
6.807620e+002,2.308870e+004,2.248324e+004,2.248324e+004,,8.059180e+002,1.847096e+004,1.798659e+004,1.798659e+004
6.808620e+002,2.340530e+004,2.247884e+004,2.247884e+004,,8.058180e+002,1.872424e+004,1.798307e+004,1.798307e+004
6.809620e+002,2.300580e+004,2.247633e+004,2.247633e+004,,8.057180e+002,1.840464e+004,1.798106e+004,1.798106e+004
6.810620e+002,2.297930e+004,2.247393e+004,2.247393e+004,,8.056180e+002,1.838344e+004,1.797915e+004,1.797915e+004
6.811620e+002,2.358800e+004,2.246862e+004,2.246862e+004,,8.055180e+002,1.887040e+004,1.797489e+004,1.797489e+004
6.812620e+002,2.354200e+004,2.246350e+004,2.246350e+004,,8.054180e+002,1.883360e+004,1.797080e+004,1.797080e+004
6.813620e+002,2.337610e+004,2.245915e+004,2.245915e+004,,8.053180e+002,1.870088e+004,1.796732e+004,1.796732e+004
6.814620e+002,2.356800e+004,2.245386e+004,2.245386e+004,,8.052180e+002,1.885440e+004,1.796309e+004,1.796309e+004
6.815620e+002,2.366650e+004,2.244808e+004,2.244808e+004,,8.051180e+002,1.893320e+004,1.795846e+004,1.795846e+004
6.816620e+002,2.360090e+004,2.244258e+004,2.244258e+004,,8.050180e+002,1.888072e+004,1.795406e+004,1.795406e+004
6.817620e+002,2.354160e+004,2.243734e+004,2.243734e+004,,8.049180e+002,1.883328e+004,1.794987e+004,1.794987e+004
6.818620e+002,2.366930e+004,2.243146e+004,2.243146e+004,,8.048180e+002,1.893544e+004,1.794517e+004,1.794517e+004
6.819620e+002,2.386830e+004,2.242461e+004,2.242461e+004,,8.047180e+002,1.909464e+004,1.793969e+004,1.793969e+004
6.820620e+002,2.383590e+004,2.241788e+004,2.241788e+004,,8.046180e+002,1.906872e+004,1.793430e+004,1.793430e+004
6.821620e+002,2.377510e+004,2.241141e+004,2.241141e+004,,8.045180e+002,1.902008e+004,1.792913e+004,1.792913e+004
6.822620e+002,2.383950e+004,2.240460e+004,2.240460e+004,,8.044180e+002,1.907160e+004,1.792368e+004,1.792368e+004
6.823620e+002,2.407550e+004,2.239663e+004,2.239663e+004,,8.043180e+002,1.926040e+004,1.791730e+004,1.791730e+004
6.824620e+002,2.449990e+004,2.238660e+004,2.238660e+004,,8.042180e+002,1.959992e+004,1.790928e+004,1.790928e+004
6.825620e+002,2.403530e+004,2.237874e+004,2.237874e+004,,8.041180e+002,1.922824e+004,1.790299e+004,1.790299e+004
6.826620e+002,2.368170e+004,2.237252e+004,2.237252e+004,,8.040180e+002,1.894536e+004,1.789802e+004,1.789802e+004
6.827620e+002,2.417080e+004,2.236395e+004,2.236395e+004,,8.039180e+002,1.933664e+004,1.789116e+004,1.789116e+004
6.828620e+002,2.449320e+004,2.235379e+004,2.235379e+004,,8.038180e+002,1.959456e+004,1.788304e+004,1.788304e+004
6.829620e+002,2.441490e+004,2.234396e+004,2.234396e+004,,8.037180e+002,1.953192e+004,1.787517e+004,1.787517e+004
6.830620e+002,2.447570e+004,2.233380e+004,2.233380e+004,,8.036180e+002,1.958056e+004,1.786704e+004,1.786704e+004
6.831620e+002,2.476060e+004,2.232223e+004,2.232223e+004,,8.035180e+002,1.980848e+004,1.785778e+004,1.785778e+004
6.832620e+002,2.486080e+004,2.231012e+004,2.231012e+004,,8.034180e+002,1.988864e+004,1.784810e+004,1.784810e+004
6.833620e+002,2.484380e+004,2.229804e+004,2.229804e+004,,8.033180e+002,1.987504e+004,1.783843e+004,1.783843e+004
6.834620e+002,2.477510e+004,2.228622e+004,2.228622e+004,,8.032180e+002,1.982008e+004,1.782898e+004,1.782898e+004
6.835620e+002,2.488610e+004,2.227383e+004,2.227383e+004,,8.031180e+002,1.990888e+004,1.781906e+004,1.781906e+004
6.836620e+002,2.538740e+004,2.225898e+004,2.225898e+004,,8.030180e+002,2.030992e+004,1.780718e+004,1.780718e+004
6.837620e+002,2.511870e+004,2.224534e+004,2.224534e+004,,8.029180e+002,2.009496e+004,1.779627e+004,1.779627e+004
6.838620e+002,2.518830e+004,2.223131e+004,2.223131e+004,,8.028180e+002,2.015064e+004,1.778504e+004,1.778504e+004
6.839620e+002,2.540050e+004,2.221619e+004,2.221619e+004,,8.027180e+002,2.032040e+004,1.777295e+004,1.777295e+004
6.840620e+002,2.545860e+004,2.220073e+004,2.220073e+004,,8.026180e+002,2.036688e+004,1.776058e+004,1.776058e+004
6.841620e+002,2.568260e+004,2.218413e+004,2.218413e+004,,8.025180e+002,2.054608e+004,1.774730e+004,1.774730e+004
6.842620e+002,2.533910e+004,2.216908e+004,2.216908e+004,,8.024180e+002,2.027128e+004,1.773526e+004,1.773526e+004
6.843620e+002,2.548510e+004,2.215327e+004,2.215327e+004,,8.023180e+002,2.038808e+004,1.772261e+004,1.772261e+004
6.844620e+002,2.565250e+004,2.213658e+004,2.213658e+004,,8.022180e+002,2.052200e+004,1.770926e+004,1.770926e+004
6.845620e+002,2.543500e+004,2.212085e+004,2.212085e+004,,8.021180e+002,2.034800e+004,1.769668e+004,1.769668e+004
6.846620e+002,2.558670e+004,2.210432e+004,2.210432e+004,,8.020180e+002,2.046936e+004,1.768346e+004,1.768346e+004
6.847620e+002,2.580350e+004,2.208668e+004,2.208668e+004,,8.019180e+002,2.064280e+004,1.766934e+004,1.766934e+004
6.848620e+002,2.559630e+004,2.206994e+004,2.206994e+004,,8.018180e+002,2.047704e+004,1.765595e+004,1.765595e+004
6.849620e+002,2.559620e+004,2.205313e+004,2.205313e+004,,8.017180e+002,2.047696e+004,1.764250e+004,1.764250e+004
6.850620e+002,2.563470e+004,2.203605e+004,2.203605e+004,,8.016180e+002,2.050776e+004,1.762884e+004,1.762884e+004
6.851620e+002,2.539390e+004,2.202003e+004,2.202003e+004,,8.015180e+002,2.031512e+004,1.761603e+004,1.761603e+004
6.852620e+002,2.546300e+004,2.200362e+004,2.200362e+004,,8.014180e+002,2.037040e+004,1.760289e+004,1.760289e+004
6.853620e+002,2.565450e+004,2.198620e+004,2.198620e+004,,8.013180e+002,2.052360e+004,1.758896e+004,1.758896e+004
6.854620e+002,2.577100e+004,2.196816e+004,2.196816e+004,,8.012180e+002,2.061680e+004,1.757452e+004,1.757452e+004
6.855620e+002,2.534920e+004,2.195203e+004,2.195203e+004,,8.011180e+002,2.027936e+004,1.756163e+004,1.756163e+004
6.856620e+002,2.537070e+004,2.193573e+004,2.193573e+004,,8.010180e+002,2.029656e+004,1.754858e+004,1.754858e+004
6.857620e+002,2.542100e+004,2.191911e+004,2.191911e+004,,8.009180e+002,2.033680e+004,1.753529e+004,1.753529e+004
6.858620e+002,2.541950e+004,2.190242e+004,2.190242e+004,,8.008180e+002,2.033560e+004,1.752193e+004,1.752193e+004
6.859620e+002,2.563610e+004,2.188461e+004,2.188461e+004,,8.007180e+002,2.050888e+004,1.750769e+004,1.750769e+004
6.860620e+002,2.497650e+004,2.186987e+004,2.186987e+004,,8.006180e+002,1.998120e+004,1.749589e+004,1.749589e+004
6.861620e+002,2.480540e+004,2.185587e+004,2.185587e+004,,8.005180e+002,1.984432e+004,1.748469e+004,1.748469e+004
6.862620e+002,2.489970e+004,2.184135e+004,2.184135e+004,,8.004180e+002,1.991976e+004,1.747308e+004,1.747308e+004
6.863620e+002,2.490230e+004,2.182675e+004,2.182675e+004,,8.003180e+002,1.992184e+004,1.746140e+004,1.746140e+004
6.864620e+002,2.469130e+004,2.181309e+004,2.181309e+004,,8.002180e+002,1.975304e+004,1.745047e+004,1.745047e+004
6.865620e+002,2.469010e+004,2.179937e+004,2.179937e+004,,8.001180e+002,1.975208e+004,1.743950e+004,1.743950e+004
6.866620e+002,2.467340e+004,2.178567e+004,2.178567e+004,,8.000180e+002,1.973872e+004,1.742853e+004,1.742853e+004
6.867620e+002,2.440950e+004,2.177315e+004,2.177315e+004,,7.999180e+002,1.952760e+004,1.741852e+004,1.741852e+004
6.868620e+002,2.471220e+004,2.175914e+004,2.175914e+004,,7.998180e+002,1.976976e+004,1.740731e+004,1.740731e+004
6.869620e+002,2.443720e+004,2.174637e+004,2.174637e+004,,7.997180e+002,1.954976e+004,1.739709e+004,1.739709e+004
6.870620e+002,2.439010e+004,2.173376e+004,2.173376e+004,,7.996180e+002,1.951208e+004,1.738701e+004,1.738701e+004
6.871620e+002,2.410070e+004,2.172247e+004,2.172247e+004,,7.995180e+002,1.928056e+004,1.737798e+004,1.737798e+004
6.872620e+002,2.408570e+004,2.171120e+004,2.171120e+004,,7.994180e+002,1.926856e+004,1.736896e+004,1.736896e+004
6.873620e+002,2.415620e+004,2.169954e+004,2.169954e+004,,7.993180e+002,1.932496e+004,1.735963e+004,1.735963e+004
6.874620e+002,2.448100e+004,2.168628e+004,2.168628e+004,,7.992180e+002,1.958480e+004,1.734902e+004,1.734902e+004
6.875620e+002,2.403210e+004,2.167509e+004,2.167509e+004,,7.991180e+002,1.922568e+004,1.734007e+004,1.734007e+004
6.876620e+002,2.421090e+004,2.166300e+004,2.166300e+004,,7.990180e+002,1.936872e+004,1.733040e+004,1.733040e+004
6.877620e+002,2.426530e+004,2.165059e+004,2.165059e+004,,7.989180e+002,1.941224e+004,1.732047e+004,1.732047e+004
6.878620e+002,2.381130e+004,2.164028e+004,2.164028e+004,,7.988180e+002,1.904904e+004,1.731223e+004,1.731223e+004
6.879620e+002,2.431560e+004,2.162753e+004,2.162753e+004,,7.987180e+002,1.945248e+004,1.730202e+004,1.730202e+004
6.880620e+002,2.431220e+004,2.161472e+004,2.161472e+004,,7.986180e+002,1.944976e+004,1.729178e+004,1.729178e+004
6.881620e+002,2.452380e+004,2.160085e+004,2.160085e+004,,7.985180e+002,1.961904e+004,1.728068e+004,1.728068e+004
6.882620e+002,2.431490e+004,2.158791e+004,2.158791e+004,,7.984180e+002,1.945192e+004,1.727033e+004,1.727033e+004
6.883620e+002,2.459210e+004,2.157358e+004,2.157358e+004,,7.983180e+002,1.967368e+004,1.725886e+004,1.725886e+004
6.884620e+002,2.457320e+004,2.155928e+004,2.155928e+004,,7.982180e+002,1.965856e+004,1.724742e+004,1.724742e+004
6.885620e+002,2.472480e+004,2.154418e+004,2.154418e+004,,7.981180e+002,1.977984e+004,1.723534e+004,1.723534e+004
6.886620e+002,2.513690e+004,2.152705e+004,2.152705e+004,,7.980180e+002,2.010952e+004,1.722164e+004,1.722164e+004
6.887620e+002,2.514100e+004,2.150981e+004,2.150981e+004,,7.979180e+002,2.011280e+004,1.720785e+004,1.720785e+004
6.888620e+002,2.505940e+004,2.149289e+004,2.149289e+004,,7.978180e+002,2.004752e+004,1.719431e+004,1.719431e+004
6.889620e+002,2.539430e+004,2.147428e+004,2.147428e+004,,7.977180e+002,2.031544e+004,1.717942e+004,1.717942e+004
6.890620e+002,2.524170e+004,2.145631e+004,2.145631e+004,,7.976180e+002,2.019336e+004,1.716505e+004,1.716505e+004
6.891620e+002,2.547900e+004,2.143713e+004,2.143713e+004,,7.975180e+002,2.038320e+004,1.714970e+004,1.714970e+004
6.892620e+002,2.567650e+004,2.141691e+004,2.141691e+004,,7.974180e+002,2.054120e+004,1.713353e+004,1.713353e+004
6.893620e+002,2.585770e+004,2.139574e+004,2.139574e+004,,7.973180e+002,2.068616e+004,1.711659e+004,1.711659e+004
6.894620e+002,2.592990e+004,2.137411e+004,2.137411e+004,,7.972180e+002,2.074392e+004,1.709929e+004,1.709929e+004
6.895620e+002,2.616610e+004,2.135126e+004,2.135126e+004,,7.971180e+002,2.093288e+004,1.708101e+004,1.708101e+004
6.896620e+002,2.609470e+004,2.132864e+004,2.132864e+004,,7.970180e+002,2.087576e+004,1.706291e+004,1.706291e+004
6.897620e+002,2.655860e+004,2.130370e+004,2.130370e+004,,7.969180e+002,2.124688e+004,1.704296e+004,1.704296e+004
6.898620e+002,2.690290e+004,2.127700e+004,2.127700e+004,,7.968180e+002,2.152232e+004,1.702160e+004,1.702160e+004
6.899620e+002,2.655390e+004,2.125183e+004,2.125183e+004,,7.967180e+002,2.124312e+004,1.700147e+004,1.700147e+004
6.900620e+002,2.683570e+004,2.122520e+004,2.122520e+004,,7.966180e+002,2.146856e+004,1.698016e+004,1.698016e+004
6.901620e+002,2.666340e+004,2.119927e+004,2.119927e+004,,7.965180e+002,2.133072e+004,1.695942e+004,1.695942e+004
6.902620e+002,2.719460e+004,2.117068e+004,2.117068e+004,,7.964180e+002,2.175568e+004,1.693654e+004,1.693654e+004
6.903620e+002,2.685560e+004,2.114357e+004,2.114357e+004,,7.963180e+002,2.148448e+004,1.691486e+004,1.691486e+004
6.904620e+002,2.720490e+004,2.111466e+004,2.111466e+004,,7.962180e+002,2.176392e+004,1.689173e+004,1.689173e+004
6.905620e+002,2.690350e+004,2.108706e+004,2.108706e+004,,7.961180e+002,2.152280e+004,1.686965e+004,1.686965e+004
6.906620e+002,2.718240e+004,2.105799e+004,2.105799e+004,,7.960180e+002,2.174592e+004,1.684639e+004,1.684639e+004
6.907620e+002,2.700890e+004,2.102961e+004,2.102961e+004,,7.959180e+002,2.160712e+004,1.682369e+004,1.682369e+004
6.908620e+002,2.709810e+004,2.100067e+004,2.100067e+004,,7.958180e+002,2.167848e+004,1.680054e+004,1.680054e+004
6.909620e+002,2.709480e+004,2.097161e+004,2.097161e+004,,7.957180e+002,2.167584e+004,1.677729e+004,1.677729e+004
6.910620e+002,2.689870e+004,2.094334e+004,2.094334e+004,,7.956180e+002,2.151896e+004,1.675468e+004,1.675468e+004
6.911620e+002,2.698210e+004,2.091455e+004,2.091455e+004,,7.955180e+002,2.158568e+004,1.673164e+004,1.673164e+004
6.912620e+002,2.678210e+004,2.088656e+004,2.088656e+004,,7.954180e+002,2.142568e+004,1.670925e+004,1.670925e+004
6.913620e+002,2.654380e+004,2.085959e+004,2.085959e+004,,7.953180e+002,2.123504e+004,1.668767e+004,1.668767e+004
6.914620e+002,2.633480e+004,2.083348e+004,2.083348e+004,,7.952180e+002,2.106784e+004,1.666678e+004,1.666678e+004
6.915620e+002,2.608480e+004,2.080843e+004,2.080843e+004,,7.951180e+002,2.086784e+004,1.664675e+004,1.664675e+004
6.916620e+002,2.572960e+004,2.078496e+004,2.078496e+004,,7.950180e+002,2.058368e+004,1.662797e+004,1.662797e+004
6.917620e+002,2.562480e+004,2.076188e+004,2.076188e+004,,7.949180e+002,2.049984e+004,1.660951e+004,1.660951e+004
6.918620e+002,2.563940e+004,2.073862e+004,2.073862e+004,,7.948180e+002,2.051152e+004,1.659090e+004,1.659090e+004
6.919620e+002,2.508980e+004,2.071787e+004,2.071787e+004,,7.947180e+002,2.007184e+004,1.657430e+004,1.657430e+004
6.920620e+002,2.535620e+004,2.069575e+004,2.069575e+004,,7.946180e+002,2.028496e+004,1.655660e+004,1.655660e+004
6.921620e+002,2.480430e+004,2.067616e+004,2.067616e+004,,7.945180e+002,1.984344e+004,1.654093e+004,1.654093e+004
6.922620e+002,2.454690e+004,2.065770e+004,2.065770e+004,,7.944180e+002,1.963752e+004,1.652616e+004,1.652616e+004
6.923620e+002,2.446500e+004,2.063955e+004,2.063955e+004,,7.943180e+002,1.957200e+004,1.651164e+004,1.651164e+004
6.924620e+002,2.407300e+004,2.062317e+004,2.062317e+004,,7.942180e+002,1.925840e+004,1.649854e+004,1.649854e+004
6.925620e+002,2.385260e+004,2.060777e+004,2.060777e+004,,7.941180e+002,1.908208e+004,1.648622e+004,1.648622e+004
6.926620e+002,2.389610e+004,2.059209e+004,2.059209e+004,,7.940180e+002,1.911688e+004,1.647367e+004,1.647367e+004
6.927620e+002,2.350310e+004,2.057821e+004,2.057821e+004,,7.939180e+002,1.880248e+004,1.646257e+004,1.646257e+004
6.928620e+002,2.353300e+004,2.056412e+004,2.056412e+004,,7.938180e+002,1.882640e+004,1.645129e+004,1.645129e+004
6.929620e+002,2.322740e+004,2.055142e+004,2.055142e+004,,7.937180e+002,1.858192e+004,1.644113e+004,1.644113e+004
6.930620e+002,2.317220e+004,2.053892e+004,2.053892e+004,,7.936180e+002,1.853776e+004,1.643114e+004,1.643114e+004
6.931620e+002,2.317950e+004,2.052633e+004,2.052633e+004,,7.935180e+002,1.854360e+004,1.642106e+004,1.642106e+004
6.932620e+002,2.286630e+004,2.051517e+004,2.051517e+004,,7.934180e+002,1.829304e+004,1.641213e+004,1.641213e+004
6.933620e+002,2.289590e+004,2.050381e+004,2.050381e+004,,7.933180e+002,1.831672e+004,1.640305e+004,1.640305e+004
6.934620e+002,2.269420e+004,2.049337e+004,2.049337e+004,,7.932180e+002,1.815536e+004,1.639470e+004,1.639470e+004
6.935620e+002,2.249340e+004,2.048383e+004,2.048383e+004,,7.931180e+002,1.799472e+004,1.638706e+004,1.638706e+004
6.936620e+002,2.266470e+004,2.047343e+004,2.047343e+004,,7.930180e+002,1.813176e+004,1.637874e+004,1.637874e+004
6.937620e+002,2.239060e+004,2.046429e+004,2.046429e+004,,7.929180e+002,1.791248e+004,1.637143e+004,1.637143e+004
6.938620e+002,2.211690e+004,2.045641e+004,2.045641e+004,,7.928180e+002,1.769352e+004,1.636513e+004,1.636513e+004
6.939620e+002,2.203630e+004,2.044887e+004,2.044887e+004,,7.927180e+002,1.762904e+004,1.635910e+004,1.635910e+004
6.940620e+002,2.196230e+004,2.044166e+004,2.044166e+004,,7.926180e+002,1.756984e+004,1.635332e+004,1.635332e+004
6.941620e+002,2.176140e+004,2.043536e+004,2.043536e+004,,7.925180e+002,1.740912e+004,1.634829e+004,1.634829e+004
6.942620e+002,2.154830e+004,2.043005e+004,2.043005e+004,,7.924180e+002,1.723864e+004,1.634404e+004,1.634404e+004
6.943620e+002,2.150490e+004,2.042493e+004,2.042493e+004,,7.923180e+002,1.720392e+004,1.633994e+004,1.633994e+004
6.944620e+002,2.178810e+004,2.041843e+004,2.041843e+004,,7.922180e+002,1.743048e+004,1.633474e+004,1.633474e+004
6.945620e+002,2.145050e+004,2.041351e+004,2.041351e+004,,7.921180e+002,1.716040e+004,1.633081e+004,1.633081e+004
6.946620e+002,2.162620e+004,2.040772e+004,2.040772e+004,,7.920180e+002,1.730096e+004,1.632618e+004,1.632618e+004
6.947620e+002,2.147340e+004,2.040264e+004,2.040264e+004,,7.919180e+002,1.717872e+004,1.632211e+004,1.632211e+004
6.948620e+002,2.147090e+004,2.039755e+004,2.039755e+004,,7.918180e+002,1.717672e+004,1.631804e+004,1.631804e+004
6.949620e+002,2.149190e+004,2.039233e+004,2.039233e+004,,7.917180e+002,1.719352e+004,1.631386e+004,1.631386e+004
6.950620e+002,2.143160e+004,2.038737e+004,2.038737e+004,,7.916180e+002,1.714528e+004,1.630990e+004,1.630990e+004
6.951620e+002,2.155320e+004,2.038181e+004,2.038181e+004,,7.915180e+002,1.724256e+004,1.630545e+004,1.630545e+004
6.952620e+002,2.145030e+004,2.037672e+004,2.037672e+004,,7.914180e+002,1.716024e+004,1.630137e+004,1.630137e+004
6.953620e+002,2.160590e+004,2.037086e+004,2.037086e+004,,7.913180e+002,1.728472e+004,1.629668e+004,1.629668e+004
6.954620e+002,2.167020e+004,2.036466e+004,2.036466e+004,,7.912180e+002,1.733616e+004,1.629173e+004,1.629173e+004
6.955620e+002,2.155180e+004,2.035900e+004,2.035900e+004,,7.911180e+002,1.724144e+004,1.628720e+004,1.628720e+004
6.956620e+002,2.153960e+004,2.035337e+004,2.035337e+004,,7.910180e+002,1.723168e+004,1.628269e+004,1.628269e+004
6.957620e+002,2.143640e+004,2.034820e+004,2.034820e+004,,7.909180e+002,1.714912e+004,1.627856e+004,1.627856e+004
6.958620e+002,2.188220e+004,2.034089e+004,2.034089e+004,,7.908180e+002,1.750576e+004,1.627271e+004,1.627271e+004
6.959620e+002,2.151140e+004,2.033531e+004,2.033531e+004,,7.907180e+002,1.720912e+004,1.626824e+004,1.626824e+004
6.960620e+002,2.174680e+004,2.032857e+004,2.032857e+004,,7.906180e+002,1.739744e+004,1.626286e+004,1.626286e+004
6.961620e+002,2.170900e+004,2.032199e+004,2.032199e+004,,7.905180e+002,1.736720e+004,1.625759e+004,1.625759e+004
6.962620e+002,2.172970e+004,2.031528e+004,2.031528e+004,,7.904180e+002,1.738376e+004,1.625222e+004,1.625222e+004
6.963620e+002,2.212240e+004,2.030666e+004,2.030666e+004,,7.903180e+002,1.769792e+004,1.624533e+004,1.624533e+004
6.964620e+002,2.192450e+004,2.029895e+004,2.029895e+004,,7.902180e+002,1.753960e+004,1.623916e+004,1.623916e+004
6.965620e+002,2.195880e+004,2.029103e+004,2.029103e+004,,7.901180e+002,1.756704e+004,1.623282e+004,1.623282e+004
6.966620e+002,2.219510e+004,2.028195e+004,2.028195e+004,,7.900180e+002,1.775608e+004,1.622556e+004,1.622556e+004
6.967620e+002,2.206350e+004,2.027345e+004,2.027345e+004,,7.899180e+002,1.765080e+004,1.621876e+004,1.621876e+004
6.968620e+002,2.255170e+004,2.026259e+004,2.026259e+004,,7.898180e+002,1.804136e+004,1.621007e+004,1.621007e+004
6.969620e+002,2.238410e+004,2.025247e+004,2.025247e+004,,7.897180e+002,1.790728e+004,1.620198e+004,1.620198e+004
6.970620e+002,2.231890e+004,2.024262e+004,2.024262e+004,,7.896180e+002,1.785512e+004,1.619409e+004,1.619409e+004
6.971620e+002,2.236710e+004,2.023249e+004,2.023249e+004,,7.895180e+002,1.789368e+004,1.618599e+004,1.618599e+004
6.972620e+002,2.261370e+004,2.022113e+004,2.022113e+004,,7.894180e+002,1.809096e+004,1.617691e+004,1.617691e+004
6.973620e+002,2.255670e+004,2.020999e+004,2.020999e+004,,7.893180e+002,1.804536e+004,1.616799e+004,1.616799e+004
6.974620e+002,2.257260e+004,2.019873e+004,2.019873e+004,,7.892180e+002,1.805808e+004,1.615898e+004,1.615898e+004
6.975620e+002,2.258010e+004,2.018737e+004,2.018737e+004,,7.891180e+002,1.806408e+004,1.614990e+004,1.614990e+004
6.976620e+002,2.283200e+004,2.017476e+004,2.017476e+004,,7.890180e+002,1.826560e+004,1.613981e+004,1.613981e+004
6.977620e+002,2.282270e+004,2.016213e+004,2.016213e+004,,7.889180e+002,1.825816e+004,1.612970e+004,1.612970e+004
6.978620e+002,2.311470e+004,2.014805e+004,2.014805e+004,,7.888180e+002,1.849176e+004,1.611844e+004,1.611844e+004
6.979620e+002,2.319830e+004,2.013350e+004,2.013350e+004,,7.887180e+002,1.855864e+004,1.610680e+004,1.610680e+004
6.980620e+002,2.344310e+004,2.011772e+004,2.011772e+004,,7.886180e+002,1.875448e+004,1.609418e+004,1.609418e+004
6.981620e+002,2.311440e+004,2.010343e+004,2.010343e+004,,7.885180e+002,1.849152e+004,1.608274e+004,1.608274e+004
6.982620e+002,2.308000e+004,2.008924e+004,2.008924e+004,,7.884180e+002,1.846400e+004,1.607139e+004,1.607139e+004
6.983620e+002,2.352580e+004,2.007285e+004,2.007285e+004,,7.883180e+002,1.882064e+004,1.605828e+004,1.605828e+004
6.984620e+002,2.338650e+004,2.005705e+004,2.005705e+004,,7.882180e+002,1.870920e+004,1.604564e+004,1.604564e+004
6.985620e+002,2.372460e+004,2.003956e+004,2.003956e+004,,7.881180e+002,1.897968e+004,1.603164e+004,1.603164e+004
6.986620e+002,2.387740e+004,2.002125e+004,2.002125e+004,,7.880180e+002,1.910192e+004,1.601700e+004,1.601700e+004
6.987620e+002,2.383230e+004,2.000308e+004,2.000308e+004,,7.879180e+002,1.906584e+004,1.600246e+004,1.600246e+004
6.988620e+002,2.401740e+004,1.998394e+004,1.998394e+004,,7.878180e+002,1.921392e+004,1.598715e+004,1.598715e+004
6.989620e+002,2.401580e+004,1.996471e+004,1.996471e+004,,7.877180e+002,1.921264e+004,1.597177e+004,1.597177e+004
6.990620e+002,2.415700e+004,1.994472e+004,1.994472e+004,,7.876180e+002,1.932560e+004,1.595577e+004,1.595577e+004
6.991620e+002,2.445830e+004,1.992319e+004,1.992319e+004,,7.875180e+002,1.956664e+004,1.593855e+004,1.593855e+004
6.992620e+002,2.451920e+004,1.990127e+004,1.990127e+004,,7.874180e+002,1.961536e+004,1.592102e+004,1.592102e+004
6.993620e+002,2.483900e+004,1.987773e+004,1.987773e+004,,7.873180e+002,1.987120e+004,1.590218e+004,1.590218e+004
6.994620e+002,2.470480e+004,1.985471e+004,1.985471e+004,,7.872180e+002,1.976384e+004,1.588377e+004,1.588377e+004
6.995620e+002,2.482430e+004,1.983101e+004,1.983101e+004,,7.871180e+002,1.985944e+004,1.586481e+004,1.586481e+004
6.996620e+002,2.514870e+004,1.980565e+004,1.980565e+004,,7.870180e+002,2.011896e+004,1.584452e+004,1.584452e+004
6.997620e+002,2.480050e+004,1.978183e+004,1.978183e+004,,7.869180e+002,1.984040e+004,1.582546e+004,1.582546e+004
6.998620e+002,2.511320e+004,1.975640e+004,1.975640e+004,,7.868180e+002,2.009056e+004,1.580512e+004,1.580512e+004
6.999620e+002,2.538090e+004,1.972958e+004,1.972958e+004,,7.867180e+002,2.030472e+004,1.578367e+004,1.578367e+004
7.000620e+002,2.551870e+004,1.970197e+004,1.970197e+004,,7.866180e+002,2.041496e+004,1.576158e+004,1.576158e+004
7.001620e+002,2.552020e+004,1.967423e+004,1.967423e+004,,7.865180e+002,2.041616e+004,1.573938e+004,1.573938e+004
7.002620e+002,2.576910e+004,1.964516e+004,1.964516e+004,,7.864180e+002,2.061528e+004,1.571613e+004,1.571613e+004
7.003620e+002,2.581390e+004,1.961575e+004,1.961575e+004,,7.863180e+002,2.065112e+004,1.569260e+004,1.569260e+004
7.004620e+002,2.579740e+004,1.958627e+004,1.958627e+004,,7.862180e+002,2.063792e+004,1.566901e+004,1.566901e+004
7.005620e+002,2.597410e+004,1.955580e+004,1.955580e+004,,7.861180e+002,2.077928e+004,1.564464e+004,1.564464e+004
7.006620e+002,2.615960e+004,1.952431e+004,1.952431e+004,,7.860180e+002,2.092768e+004,1.561945e+004,1.561945e+004
7.007620e+002,2.584040e+004,1.949419e+004,1.949419e+004,,7.859180e+002,2.067232e+004,1.559535e+004,1.559535e+004
7.008620e+002,2.604150e+004,1.946297e+004,1.946297e+004,,7.858180e+002,2.083320e+004,1.557037e+004,1.557037e+004
7.009620e+002,2.614770e+004,1.943109e+004,1.943109e+004,,7.857180e+002,2.091816e+004,1.554487e+004,1.554487e+004
7.010620e+002,2.609120e+004,1.939933e+004,1.939933e+004,,7.856180e+002,2.087296e+004,1.551946e+004,1.551946e+004
7.011620e+002,2.614810e+004,1.936714e+004,1.936714e+004,,7.855180e+002,2.091848e+004,1.549372e+004,1.549372e+004
7.012620e+002,2.594320e+004,1.933578e+004,1.933578e+004,,7.854180e+002,2.075456e+004,1.546863e+004,1.546863e+004
7.013620e+002,2.601700e+004,1.930392e+004,1.930392e+004,,7.853180e+002,2.081360e+004,1.544314e+004,1.544314e+004
7.014620e+002,2.609440e+004,1.927154e+004,1.927154e+004,,7.852180e+002,2.087552e+004,1.541723e+004,1.541723e+004
7.015620e+002,2.589170e+004,1.923997e+004,1.923997e+004,,7.851180e+002,2.071336e+004,1.539198e+004,1.539198e+004
7.016620e+002,2.601260e+004,1.920767e+004,1.920767e+004,,7.850180e+002,2.081008e+004,1.536614e+004,1.536614e+004
7.017620e+002,2.609470e+004,1.917483e+004,1.917483e+004,,7.849180e+002,2.087576e+004,1.533986e+004,1.533986e+004
7.018620e+002,2.594680e+004,1.914253e+004,1.914253e+004,,7.848180e+002,2.075744e+004,1.531403e+004,1.531403e+004
7.019620e+002,2.637630e+004,1.910804e+004,1.910804e+004,,7.847180e+002,2.110104e+004,1.528643e+004,1.528643e+004
7.020620e+002,2.597430e+004,1.907529e+004,1.907529e+004,,7.846180e+002,2.077944e+004,1.526023e+004,1.526023e+004
7.021620e+002,2.591960e+004,1.904265e+004,1.904265e+004,,7.845180e+002,2.073568e+004,1.523412e+004,1.523412e+004
7.022620e+002,2.567200e+004,1.901104e+004,1.901104e+004,,7.844180e+002,2.053760e+004,1.520883e+004,1.520883e+004
7.023620e+002,2.584500e+004,1.897845e+004,1.897845e+004,,7.843180e+002,2.067600e+004,1.518276e+004,1.518276e+004
7.024620e+002,2.589300e+004,1.894547e+004,1.894547e+004,,7.842180e+002,2.071440e+004,1.515638e+004,1.515638e+004
7.025620e+002,2.600620e+004,1.891180e+004,1.891180e+004,,7.841180e+002,2.080496e+004,1.512944e+004,1.512944e+004
7.026620e+002,2.568790e+004,1.887949e+004,1.887949e+004,,7.840180e+002,2.055032e+004,1.510359e+004,1.510359e+004
7.027620e+002,2.582870e+004,1.884635e+004,1.884635e+004,,7.839180e+002,2.066296e+004,1.507708e+004,1.507708e+004
7.028620e+002,2.589520e+004,1.881273e+004,1.881273e+004,,7.838180e+002,2.071616e+004,1.505019e+004,1.505019e+004
7.029620e+002,2.594980e+004,1.877870e+004,1.877870e+004,,7.837180e+002,2.075984e+004,1.502296e+004,1.502296e+004
7.030620e+002,2.590410e+004,1.874472e+004,1.874472e+004,,7.836180e+002,2.072328e+004,1.499578e+004,1.499578e+004
7.031620e+002,2.597570e+004,1.871024e+004,1.871024e+004,,7.835180e+002,2.078056e+004,1.496819e+004,1.496819e+004
7.032620e+002,2.600890e+004,1.867543e+004,1.867543e+004,,7.834180e+002,2.080712e+004,1.494034e+004,1.494034e+004
7.033620e+002,2.595230e+004,1.864073e+004,1.864073e+004,,7.833180e+002,2.076184e+004,1.491258e+004,1.491258e+004
7.034620e+002,2.624970e+004,1.860444e+004,1.860444e+004,,7.832180e+002,2.099976e+004,1.488355e+004,1.488355e+004
7.035620e+002,2.644990e+004,1.856703e+004,1.856703e+004,,7.831180e+002,2.115992e+004,1.485362e+004,1.485362e+004
7.036620e+002,2.620950e+004,1.853058e+004,1.853058e+004,,7.830180e+002,2.096760e+004,1.482447e+004,1.482447e+004
7.037620e+002,2.650350e+004,1.849256e+004,1.849256e+004,,7.829180e+002,2.120280e+004,1.479405e+004,1.479405e+004
7.038620e+002,2.656490e+004,1.845406e+004,1.845406e+004,,7.828180e+002,2.125192e+004,1.476325e+004,1.476325e+004
7.039620e+002,2.676730e+004,1.841442e+004,1.841442e+004,,7.827180e+002,2.141384e+004,1.473154e+004,1.473154e+004
7.040620e+002,2.687740e+004,1.837406e+004,1.837406e+004,,7.826180e+002,2.150192e+004,1.469925e+004,1.469925e+004
7.041620e+002,2.701630e+004,1.833285e+004,1.833285e+004,,7.825180e+002,2.161304e+004,1.466628e+004,1.466628e+004
7.042620e+002,2.766140e+004,1.828836e+004,1.828836e+004,,7.824180e+002,2.212912e+004,1.463069e+004,1.463069e+004
7.043620e+002,2.769570e+004,1.824350e+004,1.824350e+004,,7.823180e+002,2.215656e+004,1.459480e+004,1.459480e+004
7.044620e+002,2.801300e+004,1.819691e+004,1.819691e+004,,7.822180e+002,2.241040e+004,1.455753e+004,1.455753e+004
7.045620e+002,2.780640e+004,1.815108e+004,1.815108e+004,,7.821180e+002,2.224512e+004,1.452087e+004,1.452087e+004
7.046620e+002,2.843150e+004,1.810206e+004,1.810206e+004,,7.820180e+002,2.274520e+004,1.448165e+004,1.448165e+004
7.047620e+002,2.844920e+004,1.805271e+004,1.805271e+004,,7.819180e+002,2.275936e+004,1.444217e+004,1.444217e+004
7.048620e+002,2.865660e+004,1.800215e+004,1.800215e+004,,7.818180e+002,2.292528e+004,1.440172e+004,1.440172e+004
7.049620e+002,2.888320e+004,1.795026e+004,1.795026e+004,,7.817180e+002,2.310656e+004,1.436020e+004,1.436020e+004
7.050620e+002,2.929900e+004,1.789613e+004,1.789613e+004,,7.816180e+002,2.343920e+004,1.431691e+004,1.431691e+004
7.051620e+002,2.948420e+004,1.784087e+004,1.784087e+004,,7.815180e+002,2.358736e+004,1.427270e+004,1.427270e+004
7.052620e+002,2.981900e+004,1.778375e+004,1.778375e+004,,7.814180e+002,2.385520e+004,1.422700e+004,1.422700e+004
7.053620e+002,3.007730e+004,1.772513e+004,1.772513e+004,,7.813180e+002,2.406184e+004,1.418010e+004,1.418010e+004
7.054620e+002,3.034610e+004,1.766494e+004,1.766494e+004,,7.812180e+002,2.427688e+004,1.413195e+004,1.413195e+004
7.055620e+002,3.052690e+004,1.760360e+004,1.760360e+004,,7.811180e+002,2.442152e+004,1.408288e+004,1.408288e+004
7.056620e+002,3.119900e+004,1.753877e+004,1.753877e+004,,7.810180e+002,2.495920e+004,1.403101e+004,1.403101e+004
7.057620e+002,3.130530e+004,1.747312e+004,1.747312e+004,,7.809180e+002,2.504424e+004,1.397849e+004,1.397849e+004
7.058620e+002,3.148110e+004,1.740631e+004,1.740631e+004,,7.808180e+002,2.518488e+004,1.392505e+004,1.392505e+004
7.059620e+002,3.158400e+004,1.733870e+004,1.733870e+004,,7.807180e+002,2.526720e+004,1.387096e+004,1.387096e+004
7.060620e+002,3.185620e+004,1.726947e+004,1.726947e+004,,7.806180e+002,2.548496e+004,1.381558e+004,1.381558e+004
7.061620e+002,3.181780e+004,1.720009e+004,1.720009e+004,,7.805180e+002,2.545424e+004,1.376007e+004,1.376007e+004
7.062620e+002,3.158830e+004,1.713148e+004,1.713148e+004,,7.804180e+002,2.527064e+004,1.370518e+004,1.370518e+004
7.063620e+002,3.152340e+004,1.706284e+004,1.706284e+004,,7.803180e+002,2.521872e+004,1.365028e+004,1.365028e+004
7.064620e+002,3.143990e+004,1.699428e+004,1.699428e+004,,7.802180e+002,2.515192e+004,1.359543e+004,1.359543e+004
7.065620e+002,3.146760e+004,1.692526e+004,1.692526e+004,,7.801180e+002,2.517408e+004,1.354021e+004,1.354021e+004
7.066620e+002,3.112570e+004,1.685754e+004,1.685754e+004,,7.800180e+002,2.490056e+004,1.348603e+004,1.348603e+004
7.067620e+002,3.115220e+004,1.678937e+004,1.678937e+004,,7.799180e+002,2.492176e+004,1.343150e+004,1.343150e+004
7.068620e+002,3.044940e+004,1.672423e+004,1.672423e+004,,7.798180e+002,2.435952e+004,1.337938e+004,1.337938e+004
7.069620e+002,3.018090e+004,1.666006e+004,1.666006e+004,,7.797180e+002,2.414472e+004,1.332805e+004,1.332805e+004
7.070620e+002,2.975240e+004,1.659762e+004,1.659762e+004,,7.796180e+002,2.380192e+004,1.327810e+004,1.327810e+004
7.071620e+002,2.943040e+004,1.653642e+004,1.653642e+004,,7.795180e+002,2.354432e+004,1.322914e+004,1.322914e+004
7.072620e+002,2.917490e+004,1.647615e+004,1.647615e+004,,7.794180e+002,2.333992e+004,1.318092e+004,1.318092e+004
7.073620e+002,2.880570e+004,1.641736e+004,1.641736e+004,,7.793180e+002,2.304456e+004,1.313388e+004,1.313388e+004
7.074620e+002,2.823220e+004,1.636101e+004,1.636101e+004,,7.792180e+002,2.258576e+004,1.308881e+004,1.308881e+004
7.075620e+002,2.735160e+004,1.630860e+004,1.630860e+004,,7.791180e+002,2.188128e+004,1.304688e+004,1.304688e+004
7.076620e+002,2.712800e+004,1.625700e+004,1.625700e+004,,7.790180e+002,2.170240e+004,1.300560e+004,1.300560e+004
7.077620e+002,2.685020e+004,1.620649e+004,1.620649e+004,,7.789180e+002,2.148016e+004,1.296519e+004,1.296519e+004
7.078620e+002,2.659370e+004,1.615695e+004,1.615695e+004,,7.788180e+002,2.127496e+004,1.292556e+004,1.292556e+004
7.079620e+002,2.594010e+004,1.611030e+004,1.611030e+004,,7.787180e+002,2.075208e+004,1.288824e+004,1.288824e+004
7.080620e+002,2.549220e+004,1.606556e+004,1.606556e+004,,7.786180e+002,2.039376e+004,1.285244e+004,1.285244e+004
7.081620e+002,2.494200e+004,1.602323e+004,1.602323e+004,,7.785180e+002,1.995360e+004,1.281858e+004,1.281858e+004
7.082620e+002,2.498310e+004,1.598050e+004,1.598050e+004,,7.784180e+002,1.998648e+004,1.278440e+004,1.278440e+004
7.083620e+002,2.411640e+004,1.594170e+004,1.594170e+004,,7.783180e+002,1.929312e+004,1.275336e+004,1.275336e+004
7.084620e+002,2.358550e+004,1.590525e+004,1.590525e+004,,7.782180e+002,1.886840e+004,1.272420e+004,1.272420e+004
7.085620e+002,2.368510e+004,1.586814e+004,1.586814e+004,,7.781180e+002,1.894808e+004,1.269452e+004,1.269452e+004
7.086620e+002,2.323800e+004,1.583300e+004,1.583300e+004,,7.780180e+002,1.859040e+004,1.266640e+004,1.266640e+004
7.087620e+002,2.313870e+004,1.579816e+004,1.579816e+004,,7.779180e+002,1.851096e+004,1.263853e+004,1.263853e+004
7.088620e+002,2.268250e+004,1.576533e+004,1.576533e+004,,7.778180e+002,1.814600e+004,1.261226e+004,1.261226e+004
7.089620e+002,2.201880e+004,1.573551e+004,1.573551e+004,,7.777180e+002,1.761504e+004,1.258841e+004,1.258841e+004
7.090620e+002,2.189630e+004,1.570613e+004,1.570613e+004,,7.776180e+002,1.751704e+004,1.256490e+004,1.256490e+004
7.091620e+002,2.153950e+004,1.567831e+004,1.567831e+004,,7.775180e+002,1.723160e+004,1.254265e+004,1.254265e+004
7.092620e+002,2.129020e+004,1.565155e+004,1.565155e+004,,7.774180e+002,1.703216e+004,1.252124e+004,1.252124e+004
7.093620e+002,2.101980e+004,1.562595e+004,1.562595e+004,,7.773180e+002,1.681584e+004,1.250076e+004,1.250076e+004
7.094620e+002,2.074620e+004,1.560153e+004,1.560153e+004,,7.772180e+002,1.659696e+004,1.248122e+004,1.248122e+004
7.095620e+002,2.043420e+004,1.557848e+004,1.557848e+004,,7.771180e+002,1.634736e+004,1.246279e+004,1.246279e+004
7.096620e+002,2.008660e+004,1.555698e+004,1.555698e+004,,7.770180e+002,1.606928e+004,1.244559e+004,1.244559e+004
7.097620e+002,1.980970e+004,1.553670e+004,1.553670e+004,,7.769180e+002,1.584776e+004,1.242936e+004,1.242936e+004
7.098620e+002,1.941080e+004,1.551823e+004,1.551823e+004,,7.768180e+002,1.552864e+004,1.241458e+004,1.241458e+004
7.099620e+002,1.925400e+004,1.550041e+004,1.550041e+004,,7.767180e+002,1.540320e+004,1.240033e+004,1.240033e+004
7.100620e+002,1.925150e+004,1.548252e+004,1.548252e+004,,7.766180e+002,1.540120e+004,1.238602e+004,1.238602e+004
7.101620e+002,1.878280e+004,1.546679e+004,1.546679e+004,,7.765180e+002,1.502624e+004,1.237343e+004,1.237343e+004
7.102620e+002,1.858890e+004,1.545190e+004,1.545190e+004,,7.764180e+002,1.487112e+004,1.236152e+004,1.236152e+004
7.103620e+002,1.850320e+004,1.543735e+004,1.543735e+004,,7.763180e+002,1.480256e+004,1.234988e+004,1.234988e+004
7.104620e+002,1.874130e+004,1.542159e+004,1.542159e+004,,7.762180e+002,1.499304e+004,1.233727e+004,1.233727e+004
7.105620e+002,1.837120e+004,1.540752e+004,1.540752e+004,,7.761180e+002,1.469696e+004,1.232602e+004,1.232602e+004
7.106620e+002,1.829730e+004,1.539374e+004,1.539374e+004,,7.760180e+002,1.463784e+004,1.231499e+004,1.231499e+004
7.107620e+002,1.800820e+004,1.538127e+004,1.538127e+004,,7.759180e+002,1.440656e+004,1.230502e+004,1.230502e+004
7.108620e+002,1.791090e+004,1.536921e+004,1.536921e+004,,7.758180e+002,1.432872e+004,1.229537e+004,1.229537e+004
7.109620e+002,1.808210e+004,1.535627e+004,1.535627e+004,,7.757180e+002,1.446568e+004,1.228502e+004,1.228502e+004
7.110620e+002,1.786770e+004,1.534430e+004,1.534430e+004,,7.756180e+002,1.429416e+004,1.227544e+004,1.227544e+004
7.111620e+002,1.781920e+004,1.533249e+004,1.533249e+004,,7.755180e+002,1.425536e+004,1.226600e+004,1.226600e+004
7.112620e+002,1.809640e+004,1.531931e+004,1.531931e+004,,7.754180e+002,1.447712e+004,1.225545e+004,1.225545e+004
7.113620e+002,1.779790e+004,1.530749e+004,1.530749e+004,,7.753180e+002,1.423832e+004,1.224600e+004,1.224600e+004
7.114620e+002,1.762470e+004,1.529644e+004,1.529644e+004,,7.752180e+002,1.409976e+004,1.223716e+004,1.223716e+004
7.115620e+002,1.774270e+004,1.528478e+004,1.528478e+004,,7.751180e+002,1.419416e+004,1.222782e+004,1.222782e+004
7.116620e+002,1.775420e+004,1.527300e+004,1.527300e+004,,7.750180e+002,1.420336e+004,1.221840e+004,1.221840e+004
7.117620e+002,1.766910e+004,1.526158e+004,1.526158e+004,,7.749180e+002,1.413528e+004,1.220926e+004,1.220926e+004
7.118620e+002,1.758380e+004,1.525050e+004,1.525050e+004,,7.748180e+002,1.406704e+004,1.220040e+004,1.220040e+004
7.119620e+002,1.778290e+004,1.523842e+004,1.523842e+004,,7.747180e+002,1.422632e+004,1.219074e+004,1.219074e+004
7.120620e+002,1.777720e+004,1.522632e+004,1.522632e+004,,7.746180e+002,1.422176e+004,1.218105e+004,1.218105e+004
7.121620e+002,1.750600e+004,1.521545e+004,1.521545e+004,,7.745180e+002,1.400480e+004,1.217236e+004,1.217236e+004
7.122620e+002,1.758500e+004,1.520415e+004,1.520415e+004,,7.744180e+002,1.406800e+004,1.216332e+004,1.216332e+004
7.123620e+002,1.748210e+004,1.519328e+004,1.519328e+004,,7.743180e+002,1.398568e+004,1.215463e+004,1.215463e+004
7.124620e+002,1.744110e+004,1.518256e+004,1.518256e+004,,7.742180e+002,1.395288e+004,1.214605e+004,1.214605e+004
7.125620e+002,1.742850e+004,1.517185e+004,1.517185e+004,,7.741180e+002,1.394280e+004,1.213748e+004,1.213748e+004
7.126620e+002,1.743330e+004,1.516107e+004,1.516107e+004,,7.740180e+002,1.394664e+004,1.212885e+004,1.212885e+004
7.127620e+002,1.721570e+004,1.515127e+004,1.515127e+004,,7.739180e+002,1.377256e+004,1.212102e+004,1.212102e+004
7.128620e+002,1.708680e+004,1.514204e+004,1.514204e+004,,7.738180e+002,1.366944e+004,1.211363e+004,1.211363e+004
7.129620e+002,1.707160e+004,1.513284e+004,1.513284e+004,,7.737180e+002,1.365728e+004,1.210627e+004,1.210627e+004
7.130620e+002,1.725740e+004,1.512271e+004,1.512271e+004,,7.736180e+002,1.380592e+004,1.209816e+004,1.209816e+004
7.131620e+002,1.751360e+004,1.511130e+004,1.511130e+004,,7.735180e+002,1.401088e+004,1.208904e+004,1.208904e+004
7.132620e+002,1.728070e+004,1.510096e+004,1.510096e+004,,7.734180e+002,1.382456e+004,1.208077e+004,1.208077e+004
7.133620e+002,1.719250e+004,1.509098e+004,1.509098e+004,,7.733180e+002,1.375400e+004,1.207279e+004,1.207279e+004
7.134620e+002,1.708370e+004,1.508148e+004,1.508148e+004,,7.732180e+002,1.366696e+004,1.206519e+004,1.206519e+004
7.135620e+002,1.743810e+004,1.507024e+004,1.507024e+004,,7.731180e+002,1.395048e+004,1.205619e+004,1.205619e+004
7.136620e+002,1.704190e+004,1.506084e+004,1.506084e+004,,7.730180e+002,1.363352e+004,1.204867e+004,1.204867e+004
7.137620e+002,1.687560e+004,1.505219e+004,1.505219e+004,,7.729180e+002,1.350048e+004,1.204175e+004,1.204175e+004
7.138620e+002,1.689920e+004,1.504338e+004,1.504338e+004,,7.728180e+002,1.351936e+004,1.203470e+004,1.203470e+004
7.139620e+002,1.706070e+004,1.503376e+004,1.503376e+004,,7.727180e+002,1.364856e+004,1.202701e+004,1.202701e+004
7.140620e+002,1.692510e+004,1.502474e+004,1.502474e+004,,7.726180e+002,1.354008e+004,1.201979e+004,1.201979e+004
7.141620e+002,1.693210e+004,1.501564e+004,1.501564e+004,,7.725180e+002,1.354568e+004,1.201251e+004,1.201251e+004
7.142620e+002,1.714480e+004,1.500549e+004,1.500549e+004,,7.724180e+002,1.371584e+004,1.200439e+004,1.200439e+004
7.143620e+002,1.695940e+004,1.499617e+004,1.499617e+004,,7.723180e+002,1.356752e+004,1.199694e+004,1.199694e+004
7.144620e+002,1.697500e+004,1.498673e+004,1.498673e+004,,7.722180e+002,1.358000e+004,1.198939e+004,1.198939e+004
7.145620e+002,1.701530e+004,1.497706e+004,1.497706e+004,,7.721180e+002,1.361224e+004,1.198165e+004,1.198165e+004
7.146620e+002,1.683620e+004,1.496819e+004,1.496819e+004,,7.720180e+002,1.346896e+004,1.197456e+004,1.197456e+004
7.147620e+002,1.687720e+004,1.495909e+004,1.495909e+004,,7.719180e+002,1.350176e+004,1.196727e+004,1.196727e+004
7.148620e+002,1.677330e+004,1.495044e+004,1.495044e+004,,7.718180e+002,1.341864e+004,1.196035e+004,1.196035e+004
7.149620e+002,1.672710e+004,1.494197e+004,1.494197e+004,,7.717180e+002,1.338168e+004,1.195357e+004,1.195357e+004
7.150620e+002,1.668210e+004,1.493367e+004,1.493367e+004,,7.716180e+002,1.334568e+004,1.194693e+004,1.194693e+004
7.151620e+002,1.696310e+004,1.492399e+004,1.492399e+004,,7.715180e+002,1.357048e+004,1.193919e+004,1.193919e+004
7.152620e+002,1.669820e+004,1.491553e+004,1.491553e+004,,7.714180e+002,1.335856e+004,1.193242e+004,1.193242e+004
7.153620e+002,1.641260e+004,1.490839e+004,1.490839e+004,,7.713180e+002,1.313008e+004,1.192671e+004,1.192671e+004
7.154620e+002,1.663960e+004,1.490013e+004,1.490013e+004,,7.712180e+002,1.331168e+004,1.192011e+004,1.192011e+004
7.155620e+002,1.650990e+004,1.489246e+004,1.489246e+004,,7.711180e+002,1.320792e+004,1.191397e+004,1.191397e+004
7.156620e+002,1.696210e+004,1.488259e+004,1.488259e+004,,7.710180e+002,1.356968e+004,1.190607e+004,1.190607e+004
7.157620e+002,1.688490e+004,1.487304e+004,1.487304e+004,,7.709180e+002,1.350792e+004,1.189843e+004,1.189843e+004
7.158620e+002,1.658490e+004,1.486487e+004,1.486487e+004,,7.708180e+002,1.326792e+004,1.189190e+004,1.189190e+004
7.159620e+002,1.654030e+004,1.485688e+004,1.485688e+004,,7.707180e+002,1.323224e+004,1.188551e+004,1.188551e+004
7.160620e+002,1.624150e+004,1.485028e+004,1.485028e+004,,7.706180e+002,1.299320e+004,1.188023e+004,1.188023e+004
7.161620e+002,1.642530e+004,1.484277e+004,1.484277e+004,,7.705180e+002,1.314024e+004,1.187422e+004,1.187422e+004
7.162620e+002,1.629320e+004,1.483585e+004,1.483585e+004,,7.704180e+002,1.303456e+004,1.186868e+004,1.186868e+004
7.163620e+002,1.640870e+004,1.482835e+004,1.482835e+004,,7.703180e+002,1.312696e+004,1.186268e+004,1.186268e+004
7.164620e+002,1.636050e+004,1.482105e+004,1.482105e+004,,7.702180e+002,1.308840e+004,1.185684e+004,1.185684e+004
7.165620e+002,1.629590e+004,1.481401e+004,1.481401e+004,,7.701180e+002,1.303672e+004,1.185121e+004,1.185121e+004
7.166620e+002,1.615050e+004,1.480764e+004,1.480764e+004,,7.700180e+002,1.292040e+004,1.184611e+004,1.184611e+004
7.167620e+002,1.610210e+004,1.480147e+004,1.480147e+004,,7.699180e+002,1.288168e+004,1.184117e+004,1.184117e+004
7.168620e+002,1.608080e+004,1.479537e+004,1.479537e+004,,7.698180e+002,1.286464e+004,1.183629e+004,1.183629e+004
7.169620e+002,1.592950e+004,1.478996e+004,1.478996e+004,,7.697180e+002,1.274360e+004,1.183197e+004,1.183197e+004
7.170620e+002,1.601730e+004,1.478410e+004,1.478410e+004,,7.696180e+002,1.281384e+004,1.182728e+004,1.182728e+004
7.171620e+002,1.599930e+004,1.477831e+004,1.477831e+004,,7.695180e+002,1.279944e+004,1.182265e+004,1.182265e+004
7.172620e+002,1.580380e+004,1.477342e+004,1.477342e+004,,7.694180e+002,1.264304e+004,1.181873e+004,1.181873e+004
7.173620e+002,1.581830e+004,1.476844e+004,1.476844e+004,,7.693180e+002,1.265464e+004,1.181475e+004,1.181475e+004
7.174620e+002,1.593630e+004,1.476287e+004,1.476287e+004,,7.692180e+002,1.274904e+004,1.181029e+004,1.181029e+004
7.175620e+002,1.578760e+004,1.475798e+004,1.475798e+004,,7.691180e+002,1.263008e+004,1.180638e+004,1.180638e+004
7.176620e+002,1.577710e+004,1.475312e+004,1.475312e+004,,7.690180e+002,1.262168e+004,1.180250e+004,1.180250e+004
7.177620e+002,1.573270e+004,1.474845e+004,1.474845e+004,,7.689180e+002,1.258616e+004,1.179876e+004,1.179876e+004
7.178620e+002,1.564620e+004,1.474417e+004,1.474417e+004,,7.688180e+002,1.251696e+004,1.179533e+004,1.179533e+004
7.179620e+002,1.561150e+004,1.474003e+004,1.474003e+004,,7.687180e+002,1.248920e+004,1.179202e+004,1.179202e+004
7.180620e+002,1.547770e+004,1.473651e+004,1.473651e+004,,7.686180e+002,1.238216e+004,1.178921e+004,1.178921e+004
7.181620e+002,1.547920e+004,1.473297e+004,1.473297e+004,,7.685180e+002,1.238336e+004,1.178638e+004,1.178638e+004
7.182620e+002,1.555710e+004,1.472904e+004,1.472904e+004,,7.684180e+002,1.244568e+004,1.178323e+004,1.178323e+004
7.183620e+002,1.534240e+004,1.472612e+004,1.472612e+004,,7.683180e+002,1.227392e+004,1.178089e+004,1.178089e+004
7.184620e+002,1.556920e+004,1.472210e+004,1.472210e+004,,7.682180e+002,1.245536e+004,1.177768e+004,1.177768e+004
7.185620e+002,1.534520e+004,1.471912e+004,1.471912e+004,,7.681180e+002,1.227616e+004,1.177530e+004,1.177530e+004
7.186620e+002,1.539250e+004,1.471591e+004,1.471591e+004,,7.680180e+002,1.231400e+004,1.177273e+004,1.177273e+004
7.187620e+002,1.528160e+004,1.471321e+004,1.471321e+004,,7.679180e+002,1.222528e+004,1.177057e+004,1.177057e+004
7.188620e+002,1.531580e+004,1.471034e+004,1.471034e+004,,7.678180e+002,1.225264e+004,1.176827e+004,1.176827e+004
7.189620e+002,1.535580e+004,1.470726e+004,1.470726e+004,,7.677180e+002,1.228464e+004,1.176581e+004,1.176581e+004
7.190620e+002,1.534620e+004,1.470422e+004,1.470422e+004,,7.676180e+002,1.227696e+004,1.176337e+004,1.176337e+004
7.191620e+002,1.519250e+004,1.470189e+004,1.470189e+004,,7.675180e+002,1.215400e+004,1.176151e+004,1.176151e+004
7.192620e+002,1.514590e+004,1.469977e+004,1.469977e+004,,7.674180e+002,1.211672e+004,1.175982e+004,1.175982e+004
7.193620e+002,1.516830e+004,1.469754e+004,1.469754e+004,,7.673180e+002,1.213464e+004,1.175803e+004,1.175803e+004
7.194620e+002,1.515210e+004,1.469537e+004,1.469537e+004,,7.672180e+002,1.212168e+004,1.175629e+004,1.175629e+004
7.195620e+002,1.523980e+004,1.469277e+004,1.469277e+004,,7.671180e+002,1.219184e+004,1.175422e+004,1.175422e+004
7.196620e+002,1.492370e+004,1.469167e+004,1.469167e+004,,7.670180e+002,1.193896e+004,1.175334e+004,1.175334e+004
7.197620e+002,1.474550e+004,1.469141e+004,1.469141e+004,,7.669180e+002,1.179640e+004,1.175313e+004,1.175313e+004
7.198620e+002,1.502140e+004,1.468984e+004,1.468984e+004,,7.668180e+002,1.201712e+004,1.175187e+004,1.175187e+004
7.199620e+002,1.504010e+004,1.468817e+004,1.468817e+004,,7.667180e+002,1.203208e+004,1.175054e+004,1.175054e+004
7.200620e+002,1.484080e+004,1.468744e+004,1.468744e+004,,7.666180e+002,1.187264e+004,1.174995e+004,1.174995e+004
7.201620e+002,1.491000e+004,1.468638e+004,1.468638e+004,,7.665180e+002,1.192800e+004,1.174910e+004,1.174910e+004
7.202620e+002,1.476870e+004,1.468599e+004,1.468599e+004,,7.664180e+002,1.181496e+004,1.174879e+004,1.174879e+004
7.203620e+002,1.479140e+004,1.468549e+004,1.468549e+004,,7.663180e+002,1.183312e+004,1.174839e+004,1.174839e+004
7.204620e+002,1.502580e+004,1.468386e+004,1.468386e+004,,7.662180e+002,1.202064e+004,1.174709e+004,1.174709e+004
7.205620e+002,1.496370e+004,1.468253e+004,1.468253e+004,,7.661180e+002,1.197096e+004,1.174602e+004,1.174602e+004
7.206620e+002,1.484570e+004,1.468175e+004,1.468175e+004,,7.660180e+002,1.187656e+004,1.174540e+004,1.174540e+004
7.207620e+002,1.503580e+004,1.468006e+004,1.468006e+004,,7.659180e+002,1.202864e+004,1.174405e+004,1.174405e+004
7.208620e+002,1.475260e+004,1.467972e+004,1.467972e+004,,7.658180e+002,1.180208e+004,1.174377e+004,1.174377e+004
7.209620e+002,1.469390e+004,1.467965e+004,1.467965e+004,,7.657180e+002,1.175512e+004,1.174372e+004,1.174372e+004
7.210620e+002,1.490590e+004,1.467857e+004,1.467857e+004,,7.656180e+002,1.192472e+004,1.174285e+004,1.174285e+004
7.211620e+002,1.490080e+004,1.467751e+004,1.467751e+004,,7.655180e+002,1.192064e+004,1.174201e+004,1.174201e+004
7.212620e+002,1.486380e+004,1.467662e+004,1.467662e+004,,7.654180e+002,1.189104e+004,1.174130e+004,1.174130e+004
7.213620e+002,1.483930e+004,1.467584e+004,1.467584e+004,,7.653180e+002,1.187144e+004,1.174068e+004,1.174068e+004
7.214620e+002,1.469510e+004,1.467575e+004,1.467575e+004,,7.652180e+002,1.175608e+004,1.174060e+004,1.174060e+004
7.215620e+002,1.474240e+004,1.467544e+004,1.467544e+004,,7.651180e+002,1.179392e+004,1.174035e+004,1.174035e+004
7.216620e+002,1.471530e+004,1.467524e+004,1.467524e+004,,7.650180e+002,1.177224e+004,1.174020e+004,1.174020e+004
7.217620e+002,1.492510e+004,1.467405e+004,1.467405e+004,,7.649180e+002,1.194008e+004,1.173924e+004,1.173924e+004
7.218620e+002,1.458050e+004,1.467361e+004,1.467361e+004,,7.648180e+002,1.166440e+004,1.173889e+004,1.173889e+004
7.219620e+002,1.460110e+004,1.467327e+004,1.467327e+004,,7.647180e+002,1.168088e+004,1.173862e+004,1.173862e+004
7.220620e+002,1.474110e+004,1.467295e+004,1.467295e+004,,7.646180e+002,1.179288e+004,1.173836e+004,1.173836e+004
7.221620e+002,1.481420e+004,1.481420e+004,1.481420e+004,,7.645180e+002,1.185136e+004,1.185136e+004,1.185136e+004
7.222620e+002,1.464570e+004,1.464570e+004,1.464570e+004,,7.644180e+002,1.171656e+004,1.171656e+004,1.171656e+004
7.223620e+002,1.452890e+004,1.452890e+004,1.452890e+004,,7.643180e+002,1.162312e+004,1.162312e+004,1.162312e+004
7.224620e+002,1.460510e+004,1.460510e+004,1.460510e+004,,7.642180e+002,1.168408e+004,1.168408e+004,1.168408e+004
7.225620e+002,1.450300e+004,1.450300e+004,1.450300e+004,,7.641180e+002,1.160240e+004,1.160240e+004,1.160240e+004
7.226620e+002,1.472320e+004,1.472320e+004,1.472320e+004,,7.640180e+002,1.177856e+004,1.177856e+004,1.177856e+004
7.227620e+002,1.442350e+004,1.442350e+004,1.442350e+004,,7.639180e+002,1.153880e+004,1.153880e+004,1.153880e+004
7.228620e+002,1.459830e+004,1.459830e+004,1.459830e+004,,7.638180e+002,1.167864e+004,1.167864e+004,1.167864e+004
7.229620e+002,1.472060e+004,1.472060e+004,1.472060e+004,,7.637180e+002,1.177648e+004,1.177648e+004,1.177648e+004
7.230620e+002,1.465550e+004,1.465550e+004,1.465550e+004,,7.636180e+002,1.172440e+004,1.172440e+004,1.172440e+004
7.231620e+002,1.447660e+004,1.447660e+004,1.447660e+004,,7.635180e+002,1.158128e+004,1.158128e+004,1.158128e+004
7.232620e+002,1.466560e+004,1.466560e+004,1.466560e+004,,7.634180e+002,1.173248e+004,1.173248e+004,1.173248e+004
7.233620e+002,1.468390e+004,1.468390e+004,1.468390e+004,,7.633180e+002,1.174712e+004,1.174712e+004,1.174712e+004
7.234620e+002,1.436630e+004,1.436630e+004,1.436630e+004,,7.632180e+002,1.149304e+004,1.149304e+004,1.149304e+004
7.235620e+002,1.436270e+004,1.436270e+004,1.436270e+004,,7.631180e+002,1.149016e+004,1.149016e+004,1.149016e+004
7.236620e+002,1.452600e+004,1.452600e+004,1.452600e+004,,7.630180e+002,1.162080e+004,1.162080e+004,1.162080e+004
7.237620e+002,1.476530e+004,1.476530e+004,1.476530e+004,,7.629180e+002,1.181224e+004,1.181224e+004,1.181224e+004
7.238620e+002,1.426740e+004,1.426740e+004,1.426740e+004,,7.628180e+002,1.141392e+004,1.141392e+004,1.141392e+004
7.239620e+002,1.448460e+004,1.448460e+004,1.448460e+004,,7.627180e+002,1.158768e+004,1.158768e+004,1.158768e+004
7.240620e+002,1.432800e+004,1.432800e+004,1.432800e+004,,7.626180e+002,1.146240e+004,1.146240e+004,1.146240e+004
7.241620e+002,1.477830e+004,1.477830e+004,1.477830e+004,,7.625180e+002,1.182264e+004,1.182264e+004,1.182264e+004
7.242620e+002,1.446040e+004,1.446040e+004,1.446040e+004,,7.624180e+002,1.156832e+004,1.156832e+004,1.156832e+004
7.243620e+002,1.432030e+004,1.432030e+004,1.432030e+004,,7.623180e+002,1.145624e+004,1.145624e+004,1.145624e+004
7.244620e+002,1.442350e+004,1.442350e+004,1.442350e+004,,7.622180e+002,1.153880e+004,1.153880e+004,1.153880e+004
7.245620e+002,1.431580e+004,1.431580e+004,1.431580e+004,,7.621180e+002,1.145264e+004,1.145264e+004,1.145264e+004
7.246620e+002,1.443170e+004,1.443170e+004,1.443170e+004,,7.620180e+002,1.154536e+004,1.154536e+004,1.154536e+004
7.247620e+002,1.437010e+004,1.437010e+004,1.437010e+004,,7.619180e+002,1.149608e+004,1.149608e+004,1.149608e+004
7.248620e+002,1.451540e+004,1.451540e+004,1.451540e+004,,7.618180e+002,1.161232e+004,1.161232e+004,1.161232e+004
7.249620e+002,1.466990e+004,1.466990e+004,1.466990e+004,,7.617180e+002,1.173592e+004,1.173592e+004,1.173592e+004
