"Cycle 0:Pt #002:Co2p Scan"
,Characteristic Energy eV,1.486680e+003,Acquisition Time s,1.250000e+000
Name,,
Position,,
FWHM,,
Area,,
Lineshape,,
K.E.,Counts,Background,Envelope,,B.E.,CPS,Background CPS,Envelope CPS
6.702460e+002,2.282170e+004,2.282170e+004,2.282170e+004,,8.164340e+002,1.825736e+004,1.825736e+004,1.825736e+004
6.703460e+002,2.287950e+004,2.287950e+004,2.287950e+004,,8.163340e+002,1.830360e+004,1.830360e+004,1.830360e+004
6.704460e+002,2.278990e+004,2.278990e+004,2.278990e+004,,8.162340e+002,1.823192e+004,1.823192e+004,1.823192e+004
6.705460e+002,2.281770e+004,2.281770e+004,2.281770e+004,,8.161340e+002,1.825416e+004,1.825416e+004,1.825416e+004
6.706460e+002,2.280830e+004,2.280830e+004,2.280830e+004,,8.160340e+002,1.824664e+004,1.824664e+004,1.824664e+004
6.707460e+002,2.279970e+004,2.279970e+004,2.279970e+004,,8.159340e+002,1.823976e+004,1.823976e+004,1.823976e+004
6.708460e+002,2.270480e+004,2.270480e+004,2.270480e+004,,8.158340e+002,1.816384e+004,1.816384e+004,1.816384e+004
6.709460e+002,2.238940e+004,2.238940e+004,2.238940e+004,,8.157340e+002,1.791152e+004,1.791152e+004,1.791152e+004
6.710460e+002,2.257810e+004,2.257810e+004,2.257810e+004,,8.156340e+002,1.806248e+004,1.806248e+004,1.806248e+004
6.711460e+002,2.269930e+004,2.269930e+004,2.269930e+004,,8.155340e+002,1.815944e+004,1.815944e+004,1.815944e+004
6.712460e+002,2.255110e+004,2.255110e+004,2.255110e+004,,8.154340e+002,1.804088e+004,1.804088e+004,1.804088e+004
6.713460e+002,2.284540e+004,2.284540e+004,2.284540e+004,,8.153340e+002,1.827632e+004,1.827632e+004,1.827632e+004
6.714460e+002,2.232920e+004,2.232920e+004,2.232920e+004,,8.152340e+002,1.786336e+004,1.786336e+004,1.786336e+004
6.715460e+002,2.261720e+004,2.261720e+004,2.261720e+004,,8.151340e+002,1.809376e+004,1.809376e+004,1.809376e+004
6.716460e+002,2.249240e+004,2.249240e+004,2.249240e+004,,8.150340e+002,1.799392e+004,1.799392e+004,1.799392e+004
6.717460e+002,2.252590e+004,2.252590e+004,2.252590e+004,,8.149340e+002,1.802072e+004,1.802072e+004,1.802072e+004
6.718460e+002,2.223260e+004,2.223260e+004,2.223260e+004,,8.148340e+002,1.778608e+004,1.778608e+004,1.778608e+004
6.719460e+002,2.234150e+004,2.234150e+004,2.234150e+004,,8.147340e+002,1.787320e+004,1.787320e+004,1.787320e+004
6.720460e+002,2.235370e+004,2.235370e+004,2.235370e+004,,8.146340e+002,1.788296e+004,1.788296e+004,1.788296e+004
6.721460e+002,2.252950e+004,2.252950e+004,2.252950e+004,,8.145340e+002,1.802360e+004,1.802360e+004,1.802360e+004
6.722460e+002,2.254260e+004,2.254260e+004,2.254260e+004,,8.144340e+002,1.803408e+004,1.803408e+004,1.803408e+004
6.723460e+002,2.237480e+004,2.237480e+004,2.237480e+004,,8.143340e+002,1.789984e+004,1.789984e+004,1.789984e+004
6.724460e+002,2.224710e+004,2.224710e+004,2.224710e+004,,8.142340e+002,1.779768e+004,1.779768e+004,1.779768e+004
6.725460e+002,2.240600e+004,2.240600e+004,2.240600e+004,,8.141340e+002,1.792480e+004,1.792480e+004,1.792480e+004
6.726460e+002,2.247010e+004,2.247010e+004,2.247010e+004,,8.140340e+002,1.797608e+004,1.797608e+004,1.797608e+004
6.727460e+002,2.250730e+004,2.250730e+004,2.250730e+004,,8.139340e+002,1.800584e+004,1.800584e+004,1.800584e+004
6.728460e+002,2.255280e+004,2.255280e+004,2.255280e+004,,8.138340e+002,1.804224e+004,1.804224e+004,1.804224e+004
6.729460e+002,2.243980e+004,2.243980e+004,2.243980e+004,,8.137340e+002,1.795184e+004,1.795184e+004,1.795184e+004
6.730460e+002,2.228150e+004,2.228150e+004,2.228150e+004,,8.136340e+002,1.782520e+004,1.782520e+004,1.782520e+004
6.731460e+002,2.214910e+004,2.214910e+004,2.214910e+004,,8.135340e+002,1.771928e+004,1.771928e+004,1.771928e+004
6.732460e+002,2.217130e+004,2.217130e+004,2.217130e+004,,8.134340e+002,1.773704e+004,1.773704e+004,1.773704e+004
6.733460e+002,2.254800e+004,2.254800e+004,2.254800e+004,,8.133340e+002,1.803840e+004,1.803840e+004,1.803840e+004
6.734460e+002,2.232330e+004,2.232330e+004,2.232330e+004,,8.132340e+002,1.785864e+004,1.785864e+004,1.785864e+004
6.735460e+002,2.225420e+004,2.225420e+004,2.225420e+004,,8.131340e+002,1.780336e+004,1.780336e+004,1.780336e+004
6.736460e+002,2.239840e+004,2.239840e+004,2.239840e+004,,8.130340e+002,1.791872e+004,1.791872e+004,1.791872e+004
6.737460e+002,2.238860e+004,2.238860e+004,2.238860e+004,,8.129340e+002,1.791088e+004,1.791088e+004,1.791088e+004
6.738460e+002,2.196880e+004,2.196880e+004,2.196880e+004,,8.128340e+002,1.757504e+004,1.757504e+004,1.757504e+004
6.739460e+002,2.203770e+004,2.203770e+004,2.203770e+004,,8.127340e+002,1.763016e+004,1.763016e+004,1.763016e+004
6.740460e+002,2.226460e+004,2.226460e+004,2.226460e+004,,8.126340e+002,1.781168e+004,1.781168e+004,1.781168e+004
6.741460e+002,2.232950e+004,2.232950e+004,2.232950e+004,,8.125340e+002,1.786360e+004,1.786360e+004,1.786360e+004
6.742460e+002,2.218160e+004,2.218160e+004,2.218160e+004,,8.124340e+002,1.774528e+004,1.774528e+004,1.774528e+004
6.743460e+002,2.212590e+004,2.212590e+004,2.212590e+004,,8.123340e+002,1.770072e+004,1.770072e+004,1.770072e+004
6.744460e+002,2.232700e+004,2.232700e+004,2.232700e+004,,8.122340e+002,1.786160e+004,1.786160e+004,1.786160e+004
6.745460e+002,2.210090e+004,2.210090e+004,2.210090e+004,,8.121340e+002,1.768072e+004,1.768072e+004,1.768072e+004
6.746460e+002,2.242580e+004,2.242580e+004,2.242580e+004,,8.120340e+002,1.794064e+004,1.794064e+004,1.794064e+004
6.747460e+002,2.201480e+004,2.201480e+004,2.201480e+004,,8.119340e+002,1.761184e+004,1.761184e+004,1.761184e+004
6.748460e+002,2.230060e+004,2.230060e+004,2.230060e+004,,8.118340e+002,1.784048e+004,1.784048e+004,1.784048e+004
6.749460e+002,2.220170e+004,2.220170e+004,2.220170e+004,,8.117340e+002,1.776136e+004,1.776136e+004,1.776136e+004
6.750460e+002,2.215180e+004,2.215180e+004,2.215180e+004,,8.116340e+002,1.772144e+004,1.772144e+004,1.772144e+004
6.751460e+002,2.211840e+004,2.211840e+004,2.211840e+004,,8.115340e+002,1.769472e+004,1.769472e+004,1.769472e+004
6.752460e+002,2.207070e+004,2.207070e+004,2.207070e+004,,8.114340e+002,1.765656e+004,1.765656e+004,1.765656e+004
6.753460e+002,2.217610e+004,2.217610e+004,2.217610e+004,,8.113340e+002,1.774088e+004,1.774088e+004,1.774088e+004
6.754460e+002,2.228000e+004,2.228000e+004,2.228000e+004,,8.112340e+002,1.782400e+004,1.782400e+004,1.782400e+004
6.755460e+002,2.191350e+004,2.191350e+004,2.191350e+004,,8.111340e+002,1.753080e+004,1.753080e+004,1.753080e+004
6.756460e+002,2.230310e+004,2.230310e+004,2.230310e+004,,8.110340e+002,1.784248e+004,1.784248e+004,1.784248e+004
6.757460e+002,2.214650e+004,2.214650e+004,2.214650e+004,,8.109340e+002,1.771720e+004,1.771720e+004,1.771720e+004
6.758460e+002,2.200860e+004,2.200860e+004,2.200860e+004,,8.108340e+002,1.760688e+004,1.760688e+004,1.760688e+004
6.759460e+002,2.185880e+004,2.185880e+004,2.185880e+004,,8.107340e+002,1.748704e+004,1.748704e+004,1.748704e+004
6.760460e+002,2.198740e+004,2.198740e+004,2.198740e+004,,8.106340e+002,1.758992e+004,1.758992e+004,1.758992e+004
6.761460e+002,2.213410e+004,2.213410e+004,2.213410e+004,,8.105340e+002,1.770728e+004,1.770728e+004,1.770728e+004
6.762460e+002,2.224380e+004,2.224380e+004,2.224380e+004,,8.104340e+002,1.779504e+004,1.779504e+004,1.779504e+004
6.763460e+002,2.195570e+004,2.195570e+004,2.195570e+004,,8.103340e+002,1.756456e+004,1.756456e+004,1.756456e+004
6.764460e+002,2.227900e+004,2.227900e+004,2.227900e+004,,8.102340e+002,1.782320e+004,1.782320e+004,1.782320e+004
6.765460e+002,2.221120e+004,2.221120e+004,2.221120e+004,,8.101340e+002,1.776896e+004,1.776896e+004,1.776896e+004
6.766460e+002,2.219610e+004,2.219610e+004,2.219610e+004,,8.100340e+002,1.775688e+004,1.775688e+004,1.775688e+004
6.767460e+002,2.233300e+004,2.233300e+004,2.233300e+004,,8.099340e+002,1.786640e+004,1.786640e+004,1.786640e+004
6.768460e+002,2.197760e+004,2.197760e+004,2.197760e+004,,8.098340e+002,1.758208e+004,1.758208e+004,1.758208e+004
6.769460e+002,2.230850e+004,2.230850e+004,2.230850e+004,,8.097340e+002,1.784680e+004,1.784680e+004,1.784680e+004
6.770460e+002,2.200250e+004,2.200250e+004,2.200250e+004,,8.096340e+002,1.760200e+004,1.760200e+004,1.760200e+004
6.771460e+002,2.216730e+004,2.216730e+004,2.216730e+004,,8.095340e+002,1.773384e+004,1.773384e+004,1.773384e+004
6.772460e+002,2.216790e+004,2.205193e+004,2.205193e+004,,8.094340e+002,1.773432e+004,1.764154e+004,1.764154e+004
6.773460e+002,2.184280e+004,2.205056e+004,2.205056e+004,,8.093340e+002,1.747424e+004,1.764045e+004,1.764045e+004
6.774460e+002,2.191760e+004,2.204969e+004,2.204969e+004,,8.092340e+002,1.753408e+004,1.763975e+004,1.763975e+004
6.775460e+002,2.166150e+004,2.204716e+004,2.204716e+004,,8.091340e+002,1.732920e+004,1.763772e+004,1.763772e+004
6.776460e+002,2.211080e+004,2.204673e+004,2.204673e+004,,8.090340e+002,1.768864e+004,1.763739e+004,1.763739e+004
6.777460e+002,2.209010e+004,2.204645e+004,2.204645e+004,,8.089340e+002,1.767208e+004,1.763716e+004,1.763716e+004
6.778460e+002,2.207780e+004,2.204624e+004,2.204624e+004,,8.088340e+002,1.766224e+004,1.763699e+004,1.763699e+004
6.779460e+002,2.219500e+004,2.204525e+004,2.204525e+004,,8.087340e+002,1.775600e+004,1.763620e+004,1.763620e+004
6.780460e+002,2.212240e+004,2.204474e+004,2.204474e+004,,8.086340e+002,1.769792e+004,1.763579e+004,1.763579e+004
6.781460e+002,2.205230e+004,2.204469e+004,2.204469e+004,,8.085340e+002,1.764184e+004,1.763575e+004,1.763575e+004
6.782460e+002,2.193030e+004,2.204395e+004,2.204395e+004,,8.084340e+002,1.754424e+004,1.763516e+004,1.763516e+004
6.783460e+002,2.195020e+004,2.204333e+004,2.204333e+004,,8.083340e+002,1.756016e+004,1.763467e+004,1.763467e+004
6.784460e+002,2.190430e+004,2.204242e+004,2.204242e+004,,8.082340e+002,1.752344e+004,1.763394e+004,1.763394e+004
6.785460e+002,2.211070e+004,2.204197e+004,2.204197e+004,,8.081340e+002,1.768856e+004,1.763358e+004,1.763358e+004
6.786460e+002,2.215800e+004,2.204120e+004,2.204120e+004,,8.080340e+002,1.772640e+004,1.763296e+004,1.763296e+004
6.787460e+002,2.191250e+004,2.204036e+004,2.204036e+004,,8.079340e+002,1.753000e+004,1.763229e+004,1.763229e+004
6.788460e+002,2.187080e+004,2.203926e+004,2.203926e+004,,8.078340e+002,1.749664e+004,1.763140e+004,1.763140e+004
6.789460e+002,2.211300e+004,2.203877e+004,2.203877e+004,,8.077340e+002,1.769040e+004,1.763101e+004,1.763101e+004
6.790460e+002,2.195370e+004,2.203821e+004,2.203821e+004,,8.076340e+002,1.756296e+004,1.763057e+004,1.763057e+004
6.791460e+002,2.198490e+004,2.203786e+004,2.203786e+004,,8.075340e+002,1.758792e+004,1.763029e+004,1.763029e+004
6.792460e+002,2.217790e+004,2.203694e+004,2.203694e+004,,8.074340e+002,1.774232e+004,1.762955e+004,1.762955e+004
6.793460e+002,2.219870e+004,2.203586e+004,2.203586e+004,,8.073340e+002,1.775896e+004,1.762869e+004,1.762869e+004
6.794460e+002,2.221300e+004,2.203469e+004,2.203469e+004,,8.072340e+002,1.777040e+004,1.762775e+004,1.762775e+004
6.795460e+002,2.237750e+004,2.203242e+004,2.203242e+004,,8.071340e+002,1.790200e+004,1.762594e+004,1.762594e+004
6.796460e+002,2.210910e+004,2.203191e+004,2.203191e+004,,8.070340e+002,1.768728e+004,1.762553e+004,1.762553e+004
6.797460e+002,2.196720e+004,2.203149e+004,2.203149e+004,,8.069340e+002,1.757376e+004,1.762519e+004,1.762519e+004
6.798460e+002,2.225310e+004,2.203002e+004,2.203002e+004,,8.068340e+002,1.780248e+004,1.762402e+004,1.762402e+004
6.799460e+002,2.237900e+004,2.202771e+004,2.202771e+004,,8.067340e+002,1.790320e+004,1.762217e+004,1.762217e+004
6.800460e+002,2.214030e+004,2.202697e+004,2.202697e+004,,8.066340e+002,1.771224e+004,1.762157e+004,1.762157e+004
6.801460e+002,2.238270e+004,2.202461e+004,2.202461e+004,,8.065340e+002,1.790616e+004,1.761969e+004,1.761969e+004
6.802460e+002,2.233800e+004,2.202254e+004,2.202254e+004,,8.064340e+002,1.787040e+004,1.761803e+004,1.761803e+004
6.803460e+002,2.254650e+004,2.201907e+004,2.201907e+004,,8.063340e+002,1.803720e+004,1.761525e+004,1.761525e+004
6.804460e+002,2.184560e+004,2.201793e+004,2.201793e+004,,8.062340e+002,1.747648e+004,1.761435e+004,1.761435e+004
6.805460e+002,2.226550e+004,2.201629e+004,2.201629e+004,,8.061340e+002,1.781240e+004,1.761304e+004,1.761304e+004
6.806460e+002,2.258080e+004,2.201256e+004,2.201256e+004,,8.060340e+002,1.806464e+004,1.761005e+004,1.761005e+004
6.807460e+002,2.253440e+004,2.200910e+004,2.200910e+004,,8.059340e+002,1.802752e+004,1.760728e+004,1.760728e+004
6.808460e+002,2.247290e+004,2.200603e+004,2.200603e+004,,8.058340e+002,1.797832e+004,1.760482e+004,1.760482e+004
6.809460e+002,2.274480e+004,2.200114e+004,2.200114e+004,,8.057340e+002,1.819584e+004,1.760091e+004,1.760091e+004
6.810460e+002,2.262100e+004,2.199703e+004,2.199703e+004,,8.056340e+002,1.809680e+004,1.759763e+004,1.759763e+004
6.811460e+002,2.284080e+004,2.199145e+004,2.199145e+004,,8.055340e+002,1.827264e+004,1.759316e+004,1.759316e+004
6.812460e+002,2.264410e+004,2.198713e+004,2.198713e+004,,8.054340e+002,1.811528e+004,1.758970e+004,1.758970e+004
6.813460e+002,2.284390e+004,2.198145e+004,2.198145e+004,,8.053340e+002,1.827512e+004,1.758516e+004,1.758516e+004
6.814460e+002,2.289140e+004,2.197543e+004,2.197543e+004,,8.052340e+002,1.831312e+004,1.758034e+004,1.758034e+004
6.815460e+002,2.295670e+004,2.196893e+004,2.196893e+004,,8.051340e+002,1.836536e+004,1.757514e+004,1.757514e+004
6.816460e+002,2.275010e+004,2.196376e+004,2.196376e+004,,8.050340e+002,1.820008e+004,1.757101e+004,1.757101e+004
6.817460e+002,2.291570e+004,2.195745e+004,2.195745e+004,,8.049340e+002,1.833256e+004,1.756596e+004,1.756596e+004
6.818460e+002,2.312850e+004,2.194970e+004,2.194970e+004,,8.048340e+002,1.850280e+004,1.755976e+004,1.755976e+004
6.819460e+002,2.310920e+004,2.194202e+004,2.194202e+004,,8.047340e+002,1.848736e+004,1.755362e+004,1.755362e+004
6.820460e+002,2.314850e+004,2.193403e+004,2.193403e+004,,8.046340e+002,1.851880e+004,1.754723e+004,1.754723e+004
6.821460e+002,2.310820e+004,2.192626e+004,2.192626e+004,,8.045340e+002,1.848656e+004,1.754101e+004,1.754101e+004
6.822460e+002,2.336510e+004,2.191673e+004,2.191673e+004,,8.044340e+002,1.869208e+004,1.753338e+004,1.753338e+004
6.823460e+002,2.336110e+004,2.190717e+004,2.190717e+004,,8.043340e+002,1.868888e+004,1.752573e+004,1.752573e+004
6.824460e+002,2.365920e+004,2.189557e+004,2.189557e+004,,8.042340e+002,1.892736e+004,1.751645e+004,1.751645e+004
6.825460e+002,2.340130e+004,2.188560e+004,2.188560e+004,,8.041340e+002,1.872104e+004,1.750848e+004,1.750848e+004
6.826460e+002,2.388060e+004,2.187239e+004,2.187239e+004,,8.040340e+002,1.910448e+004,1.749791e+004,1.749791e+004
6.827460e+002,2.367040e+004,2.186048e+004,2.186048e+004,,8.039340e+002,1.893632e+004,1.748838e+004,1.748838e+004
6.828460e+002,2.368270e+004,2.184841e+004,2.184841e+004,,8.038340e+002,1.894616e+004,1.747873e+004,1.747873e+004
6.829460e+002,2.366400e+004,2.183639e+004,2.183639e+004,,8.037340e+002,1.893120e+004,1.746911e+004,1.746911e+004
6.830460e+002,2.364580e+004,2.182441e+004,2.182441e+004,,8.036340e+002,1.891664e+004,1.745953e+004,1.745953e+004
6.831460e+002,2.374660e+004,2.181168e+004,2.181168e+004,,8.035340e+002,1.899728e+004,1.744935e+004,1.744935e+004
6.832460e+002,2.374050e+004,2.179891e+004,2.179891e+004,,8.034340e+002,1.899240e+004,1.743913e+004,1.743913e+004
6.833460e+002,2.426810e+004,2.178256e+004,2.178256e+004,,8.033340e+002,1.941448e+004,1.742605e+004,1.742605e+004
6.834460e+002,2.390690e+004,2.176850e+004,2.176850e+004,,8.032340e+002,1.912552e+004,1.741480e+004,1.741480e+004
6.835460e+002,2.395160e+004,2.175404e+004,2.175404e+004,,8.031340e+002,1.916128e+004,1.740323e+004,1.740323e+004
6.836460e+002,2.407080e+004,2.173870e+004,2.173870e+004,,8.030340e+002,1.925664e+004,1.739096e+004,1.739096e+004
6.837460e+002,2.408050e+004,2.172319e+004,2.172319e+004,,8.029340e+002,1.926440e+004,1.737855e+004,1.737855e+004
6.838460e+002,2.432530e+004,2.170596e+004,2.170596e+004,,8.028340e+002,1.946024e+004,1.736477e+004,1.736477e+004
6.839460e+002,2.389750e+004,2.169145e+004,2.169145e+004,,8.027340e+002,1.911800e+004,1.735316e+004,1.735316e+004
6.840460e+002,2.427160e+004,2.167437e+004,2.167437e+004,,8.026340e+002,1.941728e+004,1.733949e+004,1.733949e+004
6.841460e+002,2.415340e+004,2.165795e+004,2.165795e+004,,8.025340e+002,1.932272e+004,1.732636e+004,1.732636e+004
6.842460e+002,2.437250e+004,2.163998e+004,2.163998e+004,,8.024340e+002,1.949800e+004,1.731198e+004,1.731198e+004
6.843460e+002,2.436370e+004,2.162194e+004,2.162194e+004,,8.023340e+002,1.949096e+004,1.729755e+004,1.729755e+004
6.844460e+002,2.446040e+004,2.160315e+004,2.160315e+004,,8.022340e+002,1.956832e+004,1.728252e+004,1.728252e+004
6.845460e+002,2.418970e+004,2.158602e+004,2.158602e+004,,8.021340e+002,1.935176e+004,1.726882e+004,1.726882e+004
6.846460e+002,2.448080e+004,2.156685e+004,2.156685e+004,,8.020340e+002,1.958464e+004,1.725348e+004,1.725348e+004
6.847460e+002,2.432540e+004,2.154859e+004,2.154859e+004,,8.019340e+002,1.946032e+004,1.723887e+004,1.723887e+004
6.848460e+002,2.397950e+004,2.153249e+004,2.153249e+004,,8.018340e+002,1.918360e+004,1.722599e+004,1.722599e+004
6.849460e+002,2.427260e+004,2.151435e+004,2.151435e+004,,8.017340e+002,1.941808e+004,1.721148e+004,1.721148e+004
6.850460e+002,2.392230e+004,2.149840e+004,2.149840e+004,,8.016340e+002,1.913784e+004,1.719872e+004,1.719872e+004
6.851460e+002,2.414140e+004,2.148090e+004,2.148090e+004,,8.015340e+002,1.931312e+004,1.718472e+004,1.718472e+004
6.852460e+002,2.388980e+004,2.146495e+004,2.146495e+004,,8.014340e+002,1.911184e+004,1.717196e+004,1.717196e+004
6.853460e+002,2.393460e+004,2.144860e+004,2.144860e+004,,8.013340e+002,1.914768e+004,1.715888e+004,1.715888e+004
6.854460e+002,2.399970e+004,2.143171e+004,2.143171e+004,,8.012340e+002,1.919976e+004,1.714537e+004,1.714537e+004
6.855460e+002,2.394890e+004,2.141504e+004,2.141504e+004,,8.011340e+002,1.915912e+004,1.713203e+004,1.713203e+004
6.856460e+002,2.376070e+004,2.139951e+004,2.139951e+004,,8.010340e+002,1.900856e+004,1.711961e+004,1.711961e+004
6.857460e+002,2.371620e+004,2.138417e+004,2.138417e+004,,8.009340e+002,1.897296e+004,1.710733e+004,1.710733e+004
6.858460e+002,2.353160e+004,2.136995e+004,2.136995e+004,,8.008340e+002,1.882528e+004,1.709596e+004,1.709596e+004
6.859460e+002,2.359130e+004,2.135524e+004,2.135524e+004,,8.007340e+002,1.887304e+004,1.708419e+004,1.708419e+004
6.860460e+002,2.320590e+004,2.134299e+004,2.134299e+004,,8.006340e+002,1.856472e+004,1.707439e+004,1.707439e+004
6.861460e+002,2.311550e+004,2.133125e+004,2.133125e+004,,8.005340e+002,1.849240e+004,1.706500e+004,1.706500e+004
6.862460e+002,2.338620e+004,2.131764e+004,2.131764e+004,,8.004340e+002,1.870896e+004,1.705411e+004,1.705411e+004
6.863460e+002,2.317250e+004,2.130536e+004,2.130536e+004,,8.003340e+002,1.853800e+004,1.704429e+004,1.704429e+004
6.864460e+002,2.310270e+004,2.129346e+004,2.129346e+004,,8.002340e+002,1.848216e+004,1.703477e+004,1.703477e+004
6.865460e+002,2.287660e+004,2.128298e+004,2.128298e+004,,8.001340e+002,1.830128e+004,1.702638e+004,1.702638e+004
6.866460e+002,2.277690e+004,2.127308e+004,2.127308e+004,,8.000340e+002,1.822152e+004,1.701847e+004,1.701847e+004
6.867460e+002,2.294810e+004,2.126199e+004,2.126199e+004,,7.999340e+002,1.835848e+004,1.700959e+004,1.700959e+004
6.868460e+002,2.283410e+004,2.125158e+004,2.125158e+004,,7.998340e+002,1.826728e+004,1.700127e+004,1.700127e+004
6.869460e+002,2.299800e+004,2.124002e+004,2.124002e+004,,7.997340e+002,1.839840e+004,1.699201e+004,1.699201e+004
6.870460e+002,2.284920e+004,2.122936e+004,2.122936e+004,,7.996340e+002,1.827936e+004,1.698349e+004,1.698349e+004
6.871460e+002,2.269070e+004,2.121969e+004,2.121969e+004,,7.995340e+002,1.815256e+004,1.697575e+004,1.697575e+004
6.872460e+002,2.270360e+004,2.120986e+004,2.120986e+004,,7.994340e+002,1.816288e+004,1.696789e+004,1.696789e+004
6.873460e+002,2.288100e+004,2.119880e+004,2.119880e+004,,7.993340e+002,1.830480e+004,1.695904e+004,1.695904e+004
6.874460e+002,2.304140e+004,2.118659e+004,2.118659e+004,,7.992340e+002,1.843312e+004,1.694928e+004,1.694928e+004
6.875460e+002,2.295180e+004,2.117491e+004,2.117491e+004,,7.991340e+002,1.836144e+004,1.693992e+004,1.693992e+004
6.876460e+002,2.280190e+004,2.116413e+004,2.116413e+004,,7.990340e+002,1.824152e+004,1.693131e+004,1.693131e+004
6.877460e+002,2.289560e+004,2.115267e+004,2.115267e+004,,7.989340e+002,1.831648e+004,1.692213e+004,1.692213e+004
6.878460e+002,2.287180e+004,2.114128e+004,2.114128e+004,,7.988340e+002,1.829744e+004,1.691303e+004,1.691303e+004
6.879460e+002,2.272500e+004,2.113080e+004,2.113080e+004,,7.987340e+002,1.818000e+004,1.690464e+004,1.690464e+004
6.880460e+002,2.302670e+004,2.111824e+004,2.111824e+004,,7.986340e+002,1.842136e+004,1.689460e+004,1.689460e+004
6.881460e+002,2.322060e+004,2.110432e+004,2.110432e+004,,7.985340e+002,1.857648e+004,1.688346e+004,1.688346e+004
6.882460e+002,2.317700e+004,2.109060e+004,2.109060e+004,,7.984340e+002,1.854160e+004,1.687248e+004,1.687248e+004
6.883460e+002,2.326720e+004,2.107619e+004,2.107619e+004,,7.983340e+002,1.861376e+004,1.686095e+004,1.686095e+004
6.884460e+002,2.355740e+004,2.105976e+004,2.105976e+004,,7.982340e+002,1.884592e+004,1.684781e+004,1.684781e+004
6.885460e+002,2.377290e+004,2.104179e+004,2.104179e+004,,7.981340e+002,1.901832e+004,1.683343e+004,1.683343e+004
6.886460e+002,2.356810e+004,2.102506e+004,2.102506e+004,,7.980340e+002,1.885448e+004,1.682005e+004,1.682005e+004
6.887460e+002,2.374310e+004,2.100707e+004,2.100707e+004,,7.979340e+002,1.899448e+004,1.680565e+004,1.680565e+004
6.888460e+002,2.394450e+004,2.098762e+004,2.098762e+004,,7.978340e+002,1.915560e+004,1.679009e+004,1.679009e+004
6.889460e+002,2.374330e+004,2.096937e+004,2.096937e+004,,7.977340e+002,1.899464e+004,1.677550e+004,1.677550e+004
6.890460e+002,2.388640e+004,2.095005e+004,2.095005e+004,,7.976340e+002,1.910912e+004,1.676004e+004,1.676004e+004
6.891460e+002,2.424650e+004,2.092823e+004,2.092823e+004,,7.975340e+002,1.939720e+004,1.674258e+004,1.674258e+004
6.892460e+002,2.462920e+004,2.090372e+004,2.090372e+004,,7.974340e+002,1.970336e+004,1.672298e+004,1.672298e+004
6.893460e+002,2.457360e+004,2.087942e+004,2.087942e+004,,7.973340e+002,1.965888e+004,1.670354e+004,1.670354e+004
6.894460e+002,2.455120e+004,2.085511e+004,2.085511e+004,,7.972340e+002,1.964096e+004,1.668409e+004,1.668409e+004
6.895460e+002,2.454120e+004,2.083070e+004,2.083070e+004,,7.971340e+002,1.963296e+004,1.666456e+004,1.666456e+004
6.896460e+002,2.478220e+004,2.080453e+004,2.080453e+004,,7.970340e+002,1.982576e+004,1.664363e+004,1.664363e+004
6.897460e+002,2.473720e+004,2.077849e+004,2.077849e+004,,7.969340e+002,1.978976e+004,1.662280e+004,1.662280e+004
6.898460e+002,2.508000e+004,2.075001e+004,2.075001e+004,,7.968340e+002,2.006400e+004,1.660001e+004,1.660001e+004
6.899460e+002,2.513000e+004,2.072101e+004,2.072101e+004,,7.967340e+002,2.010400e+004,1.657681e+004,1.657681e+004
6.900460e+002,2.527070e+004,2.069088e+004,2.069088e+004,,7.966340e+002,2.021656e+004,1.655271e+004,1.655271e+004
6.901460e+002,2.526900e+004,2.066057e+004,2.066057e+004,,7.965340e+002,2.021520e+004,1.652846e+004,1.652846e+004
6.902460e+002,2.516210e+004,2.063076e+004,2.063076e+004,,7.964340e+002,2.012968e+004,1.650461e+004,1.650461e+004
6.903460e+002,2.541150e+004,2.059911e+004,2.059911e+004,,7.963340e+002,2.032920e+004,1.647929e+004,1.647929e+004
6.904460e+002,2.550570e+004,2.056662e+004,2.056662e+004,,7.962340e+002,2.040456e+004,1.645329e+004,1.645329e+004
6.905460e+002,2.521610e+004,2.053583e+004,2.053583e+004,,7.961340e+002,2.017288e+004,1.642866e+004,1.642866e+004
6.906460e+002,2.509400e+004,2.050565e+004,2.050565e+004,,7.960340e+002,2.007520e+004,1.640452e+004,1.640452e+004
6.907460e+002,2.533490e+004,2.047367e+004,2.047367e+004,,7.959340e+002,2.026792e+004,1.637894e+004,1.637894e+004
6.908460e+002,2.545850e+004,2.044066e+004,2.044066e+004,,7.958340e+002,2.036680e+004,1.635253e+004,1.635253e+004
6.909460e+002,2.532420e+004,2.040833e+004,2.040833e+004,,7.957340e+002,2.025936e+004,1.632666e+004,1.632666e+004
6.910460e+002,2.514250e+004,2.037698e+004,2.037698e+004,,7.956340e+002,2.011400e+004,1.630158e+004,1.630158e+004
6.911460e+002,2.490700e+004,2.034698e+004,2.034698e+004,,7.955340e+002,1.992560e+004,1.627759e+004,1.627759e+004
6.912460e+002,2.429200e+004,2.032086e+004,2.032086e+004,,7.954340e+002,1.943360e+004,1.625669e+004,1.625669e+004
6.913460e+002,2.463130e+004,2.029232e+004,2.029232e+004,,7.953340e+002,1.970504e+004,1.623386e+004,1.623386e+004
6.914460e+002,2.450990e+004,2.026439e+004,2.026439e+004,,7.952340e+002,1.960792e+004,1.621152e+004,1.621152e+004
6.915460e+002,2.447520e+004,2.023651e+004,2.023651e+004,,7.951340e+002,1.958016e+004,1.618921e+004,1.618921e+004
6.916460e+002,2.399660e+004,2.021161e+004,2.021161e+004,,7.950340e+002,1.919728e+004,1.616929e+004,1.616929e+004
6.917460e+002,2.387630e+004,2.018735e+004,2.018735e+004,,7.949340e+002,1.910104e+004,1.614988e+004,1.614988e+004
6.918460e+002,2.372700e+004,2.016391e+004,2.016391e+004,,7.948340e+002,1.898160e+004,1.613113e+004,1.613113e+004
6.919460e+002,2.301970e+004,2.014500e+004,2.014500e+004,,7.947340e+002,1.841576e+004,1.611600e+004,1.611600e+004
6.920460e+002,2.333610e+004,2.012387e+004,2.012387e+004,,7.946340e+002,1.866888e+004,1.609910e+004,1.609910e+004
6.921460e+002,2.263890e+004,2.010722e+004,2.010722e+004,,7.945340e+002,1.811112e+004,1.608577e+004,1.608577e+004
6.922460e+002,2.252600e+004,2.009120e+004,2.009120e+004,,7.944340e+002,1.802080e+004,1.607296e+004,1.607296e+004
6.923460e+002,2.254620e+004,2.007495e+004,2.007495e+004,,7.943340e+002,1.803696e+004,1.605996e+004,1.605996e+004
6.924460e+002,2.232270e+004,2.006006e+004,2.006006e+004,,7.942340e+002,1.785816e+004,1.604805e+004,1.604805e+004
6.925460e+002,2.177930e+004,2.004868e+004,2.004868e+004,,7.941340e+002,1.742344e+004,1.603894e+004,1.603894e+004
6.926460e+002,2.170830e+004,2.003769e+004,2.003769e+004,,7.940340e+002,1.736664e+004,1.603015e+004,1.603015e+004
6.927460e+002,2.156910e+004,2.002755e+004,2.002755e+004,,7.939340e+002,1.725528e+004,1.602204e+004,1.602204e+004
6.928460e+002,2.115090e+004,2.002011e+004,2.002011e+004,,7.938340e+002,1.692072e+004,1.601609e+004,1.601609e+004
6.929460e+002,2.137990e+004,2.001111e+004,2.001111e+004,,7.937340e+002,1.710392e+004,1.600888e+004,1.600888e+004
6.930460e+002,2.071040e+004,2.000648e+004,2.000648e+004,,7.936340e+002,1.656832e+004,1.600518e+004,1.600518e+004
6.931460e+002,2.095340e+004,2.000020e+004,2.000020e+004,,7.935340e+002,1.676272e+004,1.600016e+004,1.600016e+004
6.932460e+002,2.060010e+004,1.999623e+004,1.999623e+004,,7.934340e+002,1.648008e+004,1.599699e+004,1.599699e+004
6.933460e+002,2.043810e+004,1.999331e+004,1.999331e+004,,7.933340e+002,1.635048e+004,1.599465e+004,1.599465e+004
6.934460e+002,2.055730e+004,1.998957e+004,1.998957e+004,,7.932340e+002,1.644584e+004,1.599166e+004,1.599166e+004
6.935460e+002,2.048330e+004,1.998630e+004,1.998630e+004,,7.931340e+002,1.638664e+004,1.598904e+004,1.598904e+004
6.936460e+002,2.043570e+004,1.998333e+004,1.998333e+004,,7.930340e+002,1.634856e+004,1.598666e+004,1.598666e+004
6.937460e+002,2.033440e+004,1.998100e+004,1.998100e+004,,7.929340e+002,1.626752e+004,1.598480e+004,1.598480e+004
6.938460e+002,2.041320e+004,1.997814e+004,1.997814e+004,,7.928340e+002,1.633056e+004,1.598251e+004,1.598251e+004
6.939460e+002,2.014630e+004,1.997703e+004,1.997703e+004,,7.927340e+002,1.611704e+004,1.598162e+004,1.598162e+004
6.940460e+002,2.008500e+004,1.997631e+004,1.997631e+004,,7.926340e+002,1.606800e+004,1.598105e+004,1.598105e+004
6.941460e+002,1.994420e+004,1.997610e+004,1.997610e+004,,7.925340e+002,1.595536e+004,1.598088e+004,1.598088e+004
6.942460e+002,2.012720e+004,1.997510e+004,1.997510e+004,,7.924340e+002,1.610176e+004,1.598008e+004,1.598008e+004
6.943460e+002,2.019690e+004,1.997363e+004,1.997363e+004,,7.923340e+002,1.615752e+004,1.597891e+004,1.597891e+004
6.944460e+002,1.999880e+004,1.997347e+004,1.997347e+004,,7.922340e+002,1.599904e+004,1.597877e+004,1.597877e+004
6.945460e+002,2.026020e+004,1.997157e+004,1.997157e+004,,7.921340e+002,1.620816e+004,1.597725e+004,1.597725e+004
6.946460e+002,1.980260e+004,1.997046e+004,1.997046e+004,,7.920340e+002,1.584208e+004,1.597637e+004,1.597637e+004
6.947460e+002,2.036820e+004,1.996783e+004,1.996783e+004,,7.919340e+002,1.629456e+004,1.597426e+004,1.597426e+004
6.948460e+002,1.998990e+004,1.996768e+004,1.996768e+004,,7.918340e+002,1.599192e+004,1.597415e+004,1.597415e+004
6.949460e+002,2.014110e+004,1.996653e+004,1.996653e+004,,7.917340e+002,1.611288e+004,1.597323e+004,1.597323e+004
6.950460e+002,2.028840e+004,1.996440e+004,1.996440e+004,,7.916340e+002,1.623072e+004,1.597152e+004,1.597152e+004
6.951460e+002,2.029340e+004,1.996222e+004,1.996222e+004,,7.915340e+002,1.623472e+004,1.596978e+004,1.596978e+004
6.952460e+002,2.007050e+004,1.996151e+004,1.996151e+004,,7.914340e+002,1.605640e+004,1.596921e+004,1.596921e+004
6.953460e+002,2.018060e+004,1.996006e+004,1.996006e+004,,7.913340e+002,1.614448e+004,1.596805e+004,1.596805e+004
6.954460e+002,2.015310e+004,1.995878e+004,1.995878e+004,,7.912340e+002,1.612248e+004,1.596702e+004,1.596702e+004
6.955460e+002,2.061850e+004,1.995441e+004,1.995441e+004,,7.911340e+002,1.649480e+004,1.596353e+004,1.596353e+004
6.956460e+002,2.019810e+004,1.995280e+004,1.995280e+004,,7.910340e+002,1.615848e+004,1.596224e+004,1.596224e+004
6.957460e+002,2.031300e+004,1.995041e+004,1.995041e+004,,7.909340e+002,1.625040e+004,1.596033e+004,1.596033e+004
6.958460e+002,2.057790e+004,1.994626e+004,1.994626e+004,,7.908340e+002,1.646232e+004,1.595700e+004,1.595700e+004
6.959460e+002,2.054260e+004,1.994231e+004,1.994231e+004,,7.907340e+002,1.643408e+004,1.595385e+004,1.595385e+004
6.960460e+002,2.052940e+004,1.993842e+004,1.993842e+004,,7.906340e+002,1.642352e+004,1.595074e+004,1.595074e+004
6.961460e+002,2.042710e+004,1.993518e+004,1.993518e+004,,7.905340e+002,1.634168e+004,1.594815e+004,1.594815e+004
6.962460e+002,2.052270e+004,1.993129e+004,1.993129e+004,,7.904340e+002,1.641816e+004,1.594503e+004,1.594503e+004
6.963460e+002,2.055180e+004,1.992718e+004,1.992718e+004,,7.903340e+002,1.644144e+004,1.594175e+004,1.594175e+004
6.964460e+002,2.091680e+004,1.992063e+004,1.992063e+004,,7.902340e+002,1.673344e+004,1.593651e+004,1.593651e+004
6.965460e+002,2.079220e+004,1.991486e+004,1.991486e+004,,7.901340e+002,1.663376e+004,1.593189e+004,1.593189e+004
6.966460e+002,2.093910e+004,1.990808e+004,1.990808e+004,,7.900340e+002,1.675128e+004,1.592646e+004,1.592646e+004
6.967460e+002,2.093460e+004,1.990128e+004,1.990128e+004,,7.899340e+002,1.674768e+004,1.592103e+004,1.592103e+004
6.968460e+002,2.075330e+004,1.989564e+004,1.989564e+004,,7.898340e+002,1.660264e+004,1.591651e+004,1.591651e+004
6.969460e+002,2.095630e+004,1.988862e+004,1.988862e+004,,7.897340e+002,1.676504e+004,1.591089e+004,1.591089e+004
6.970460e+002,2.098610e+004,1.988135e+004,1.988135e+004,,7.896340e+002,1.678888e+004,1.590508e+004,1.590508e+004
6.971460e+002,2.107460e+004,1.987345e+004,1.987345e+004,,7.895340e+002,1.685968e+004,1.589876e+004,1.589876e+004
6.972460e+002,2.118470e+004,1.986477e+004,1.986477e+004,,7.894340e+002,1.694776e+004,1.589181e+004,1.589181e+004
6.973460e+002,2.138880e+004,1.985467e+004,1.985467e+004,,7.893340e+002,1.711104e+004,1.588374e+004,1.588374e+004
6.974460e+002,2.133890e+004,1.984485e+004,1.984485e+004,,7.892340e+002,1.707112e+004,1.587588e+004,1.587588e+004
6.975460e+002,2.166630e+004,1.983279e+004,1.983279e+004,,7.891340e+002,1.733304e+004,1.586623e+004,1.586623e+004
6.976460e+002,2.137350e+004,1.982258e+004,1.982258e+004,,7.890340e+002,1.709880e+004,1.585807e+004,1.585807e+004
6.977460e+002,2.137290e+004,1.981232e+004,1.981232e+004,,7.889340e+002,1.709832e+004,1.584985e+004,1.584985e+004
6.978460e+002,2.152610e+004,1.980097e+004,1.980097e+004,,7.888340e+002,1.722088e+004,1.584078e+004,1.584078e+004
6.979460e+002,2.194260e+004,1.978679e+004,1.978679e+004,,7.887340e+002,1.755408e+004,1.582943e+004,1.582943e+004
6.980460e+002,2.162490e+004,1.977462e+004,1.977462e+004,,7.886340e+002,1.729992e+004,1.581969e+004,1.581969e+004
6.981460e+002,2.203670e+004,1.975964e+004,1.975964e+004,,7.885340e+002,1.762936e+004,1.580771e+004,1.580771e+004
6.982460e+002,2.202580e+004,1.974463e+004,1.974463e+004,,7.884340e+002,1.762064e+004,1.579571e+004,1.579571e+004
6.983460e+002,2.193730e+004,1.973012e+004,1.973012e+004,,7.883340e+002,1.754984e+004,1.578409e+004,1.578409e+004
6.984460e+002,2.232930e+004,1.971291e+004,1.971291e+004,,7.882340e+002,1.786344e+004,1.577032e+004,1.577032e+004
6.985460e+002,2.249470e+004,1.969449e+004,1.969449e+004,,7.881340e+002,1.799576e+004,1.575559e+004,1.575559e+004
6.986460e+002,2.257750e+004,1.967540e+004,1.967540e+004,,7.880340e+002,1.806200e+004,1.574032e+004,1.574032e+004
6.987460e+002,2.231860e+004,1.965789e+004,1.965789e+004,,7.879340e+002,1.785488e+004,1.572632e+004,1.572632e+004
6.988460e+002,2.275630e+004,1.963738e+004,1.963738e+004,,7.878340e+002,1.820504e+004,1.570990e+004,1.570990e+004
6.989460e+002,2.278830e+004,1.961651e+004,1.961651e+004,,7.877340e+002,1.823064e+004,1.569321e+004,1.569321e+004
6.990460e+002,2.279130e+004,1.959549e+004,1.959549e+004,,7.876340e+002,1.823304e+004,1.567639e+004,1.567639e+004
6.991460e+002,2.285980e+004,1.957388e+004,1.957388e+004,,7.875340e+002,1.828784e+004,1.565910e+004,1.565910e+004
6.992460e+002,2.289340e+004,1.955190e+004,1.955190e+004,,7.874340e+002,1.831472e+004,1.564152e+004,1.564152e+004
6.993460e+002,2.313570e+004,1.952817e+004,1.952817e+004,,7.873340e+002,1.850856e+004,1.562253e+004,1.562253e+004
6.994460e+002,2.290150e+004,1.950583e+004,1.950583e+004,,7.872340e+002,1.832120e+004,1.560466e+004,1.560466e+004
6.995460e+002,2.313690e+004,1.948179e+004,1.948179e+004,,7.871340e+002,1.850952e+004,1.558543e+004,1.558543e+004
6.996460e+002,2.302250e+004,1.945834e+004,1.945834e+004,,7.870340e+002,1.841800e+004,1.556667e+004,1.556667e+004
6.997460e+002,2.346000e+004,1.943185e+004,1.943185e+004,,7.869340e+002,1.876800e+004,1.554548e+004,1.554548e+004
6.998460e+002,2.358000e+004,1.940438e+004,1.940438e+004,,7.868340e+002,1.886400e+004,1.552350e+004,1.552350e+004
6.999460e+002,2.339930e+004,1.937793e+004,1.937793e+004,,7.867340e+002,1.871944e+004,1.550234e+004,1.550234e+004
7.000460e+002,2.363430e+004,1.934974e+004,1.934974e+004,,7.866340e+002,1.890744e+004,1.547979e+004,1.547979e+004
7.001460e+002,2.398920e+004,1.931902e+004,1.931902e+004,,7.865340e+002,1.919136e+004,1.545522e+004,1.545522e+004
7.002460e+002,2.386110e+004,1.928895e+004,1.928895e+004,,7.864340e+002,1.908888e+004,1.543116e+004,1.543116e+004
7.003460e+002,2.365050e+004,1.926007e+004,1.926007e+004,,7.863340e+002,1.892040e+004,1.540805e+004,1.540805e+004
7.004460e+002,2.377330e+004,1.923018e+004,1.923018e+004,,7.862340e+002,1.901864e+004,1.538415e+004,1.538415e+004
7.005460e+002,2.364550e+004,1.920095e+004,1.920095e+004,,7.861340e+002,1.891640e+004,1.536076e+004,1.536076e+004
7.006460e+002,2.371810e+004,1.917104e+004,1.917104e+004,,7.860340e+002,1.897448e+004,1.533683e+004,1.533683e+004
7.007460e+002,2.383000e+004,1.914019e+004,1.914019e+004,,7.859340e+002,1.906400e+004,1.531215e+004,1.531215e+004
7.008460e+002,2.388920e+004,1.910874e+004,1.910874e+004,,7.858340e+002,1.911136e+004,1.528699e+004,1.528699e+004
7.009460e+002,2.402880e+004,1.907616e+004,1.907616e+004,,7.857340e+002,1.922304e+004,1.526093e+004,1.526093e+004
7.010460e+002,2.395490e+004,1.904386e+004,1.904386e+004,,7.856340e+002,1.916392e+004,1.523509e+004,1.523509e+004
7.011460e+002,2.356050e+004,1.901395e+004,1.901395e+004,,7.855340e+002,1.884840e+004,1.521116e+004,1.521116e+004
7.012460e+002,2.385610e+004,1.898189e+004,1.898189e+004,,7.854340e+002,1.908488e+004,1.518551e+004,1.518551e+004
7.013460e+002,2.385660e+004,1.894961e+004,1.894961e+004,,7.853340e+002,1.908528e+004,1.515969e+004,1.515969e+004
7.014460e+002,2.348720e+004,1.891956e+004,1.891956e+004,,7.852340e+002,1.878976e+004,1.513565e+004,1.513565e+004
7.015460e+002,2.367420e+004,1.888808e+004,1.888808e+004,,7.851340e+002,1.893936e+004,1.511047e+004,1.511047e+004
7.016460e+002,2.359370e+004,1.885692e+004,1.885692e+004,,7.850340e+002,1.887496e+004,1.508554e+004,1.508554e+004
7.017460e+002,2.360620e+004,1.882548e+004,1.882548e+004,,7.849340e+002,1.888496e+004,1.506038e+004,1.506038e+004
7.018460e+002,2.342850e+004,1.879500e+004,1.879500e+004,,7.848340e+002,1.874280e+004,1.503600e+004,1.503600e+004
7.019460e+002,2.371600e+004,1.876241e+004,1.876241e+004,,7.847340e+002,1.897280e+004,1.500993e+004,1.500993e+004
7.020460e+002,2.358130e+004,1.873050e+004,1.873050e+004,,7.846340e+002,1.886504e+004,1.498440e+004,1.498440e+004
7.021460e+002,2.329230e+004,1.870030e+004,1.870030e+004,,7.845340e+002,1.863384e+004,1.496024e+004,1.496024e+004
7.022460e+002,2.321340e+004,1.867042e+004,1.867042e+004,,7.844340e+002,1.857072e+004,1.493633e+004,1.493633e+004
7.023460e+002,2.327560e+004,1.863992e+004,1.863992e+004,,7.843340e+002,1.862048e+004,1.491194e+004,1.491194e+004
7.024460e+002,2.322700e+004,1.860955e+004,1.860955e+004,,7.842340e+002,1.858160e+004,1.488764e+004,1.488764e+004
7.025460e+002,2.293190e+004,1.858093e+004,1.858093e+004,,7.841340e+002,1.834552e+004,1.486474e+004,1.486474e+004
7.026460e+002,2.312440e+004,1.855084e+004,1.855084e+004,,7.840340e+002,1.849952e+004,1.484067e+004,1.484067e+004
7.027460e+002,2.314440e+004,1.852043e+004,1.852043e+004,,7.839340e+002,1.851552e+004,1.481634e+004,1.481634e+004
7.028460e+002,2.351160e+004,1.848738e+004,1.848738e+004,,7.838340e+002,1.880928e+004,1.478990e+004,1.478990e+004
7.029460e+002,2.334590e+004,1.845521e+004,1.845521e+004,,7.837340e+002,1.867672e+004,1.476417e+004,1.476417e+004
7.030460e+002,2.332530e+004,1.842296e+004,1.842296e+004,,7.836340e+002,1.866024e+004,1.473837e+004,1.473837e+004
7.031460e+002,2.351740e+004,1.838923e+004,1.838923e+004,,7.835340e+002,1.881392e+004,1.471138e+004,1.471138e+004
7.032460e+002,2.364080e+004,1.835445e+004,1.835445e+004,,7.834340e+002,1.891264e+004,1.468356e+004,1.468356e+004
7.033460e+002,2.370840e+004,1.831900e+004,1.831900e+004,,7.833340e+002,1.896672e+004,1.465520e+004,1.465520e+004
7.034460e+002,2.375790e+004,1.828299e+004,1.828299e+004,,7.832340e+002,1.900632e+004,1.462639e+004,1.462639e+004
7.035460e+002,2.401730e+004,1.824502e+004,1.824502e+004,,7.831340e+002,1.921384e+004,1.459602e+004,1.459602e+004
7.036460e+002,2.399300e+004,1.820696e+004,1.820696e+004,,7.830340e+002,1.919440e+004,1.456557e+004,1.456557e+004
7.037460e+002,2.447650e+004,1.816545e+004,1.816545e+004,,7.829340e+002,1.958120e+004,1.453236e+004,1.453236e+004
7.038460e+002,2.458930e+004,1.812291e+004,1.812291e+004,,7.828340e+002,1.967144e+004,1.449833e+004,1.449833e+004
7.039460e+002,2.483200e+004,1.807849e+004,1.807849e+004,,7.827340e+002,1.986560e+004,1.446279e+004,1.446279e+004
7.040460e+002,2.511420e+004,1.803190e+004,1.803190e+004,,7.826340e+002,2.009136e+004,1.442552e+004,1.442552e+004
7.041460e+002,2.514180e+004,1.798482e+004,1.798482e+004,,7.825340e+002,2.011344e+004,1.438786e+004,1.438786e+004
7.042460e+002,2.532030e+004,1.793625e+004,1.793625e+004,,7.824340e+002,2.025624e+004,1.434900e+004,1.434900e+004
7.043460e+002,2.542190e+004,1.788668e+004,1.788668e+004,,7.823340e+002,2.033752e+004,1.430935e+004,1.430935e+004
7.044460e+002,2.596290e+004,1.783321e+004,1.783321e+004,,7.822340e+002,2.077032e+004,1.426656e+004,1.426656e+004
7.045460e+002,2.624330e+004,1.777752e+004,1.777752e+004,,7.821340e+002,2.099464e+004,1.422201e+004,1.422201e+004
7.046460e+002,2.660320e+004,1.771908e+004,1.771908e+004,,7.820340e+002,2.128256e+004,1.417526e+004,1.417526e+004
7.047460e+002,2.666150e+004,1.765987e+004,1.765987e+004,,7.819340e+002,2.132920e+004,1.412789e+004,1.412789e+004
7.048460e+002,2.676030e+004,1.759961e+004,1.759961e+004,,7.818340e+002,2.140824e+004,1.407969e+004,1.407969e+004
7.049460e+002,2.703880e+004,1.753711e+004,1.753711e+004,,7.817340e+002,2.163104e+004,1.402969e+004,1.402969e+004
7.050460e+002,2.727540e+004,1.747262e+004,1.747262e+004,,7.816340e+002,2.182032e+004,1.397810e+004,1.397810e+004
7.051460e+002,2.755290e+004,1.740588e+004,1.740588e+004,,7.815340e+002,2.204232e+004,1.392470e+004,1.392470e+004
7.052460e+002,2.822920e+004,1.733421e+004,1.733421e+004,,7.814340e+002,2.258336e+004,1.386737e+004,1.386737e+004
7.053460e+002,2.808270e+004,1.726304e+004,1.726304e+004,,7.813340e+002,2.246616e+004,1.381043e+004,1.381043e+004
7.054460e+002,2.803010e+004,1.719175e+004,1.719175e+004,,7.812340e+002,2.242408e+004,1.375340e+004,1.375340e+004
7.055460e+002,2.840810e+004,1.711748e+004,1.711748e+004,,7.811340e+002,2.272648e+004,1.369398e+004,1.369398e+004
7.056460e+002,2.860930e+004,1.704138e+004,1.704138e+004,,7.810340e+002,2.288744e+004,1.363311e+004,1.363311e+004
7.057460e+002,2.877580e+004,1.696368e+004,1.696368e+004,,7.809340e+002,2.302064e+004,1.357095e+004,1.357095e+004
7.058460e+002,2.903510e+004,1.688375e+004,1.688375e+004,,7.808340e+002,2.322808e+004,1.350700e+004,1.350700e+004
7.059460e+002,2.918000e+004,1.680233e+004,1.680233e+004,,7.807340e+002,2.334400e+004,1.344187e+004,1.344187e+004
7.060460e+002,2.927430e+004,1.671975e+004,1.671975e+004,,7.806340e+002,2.341944e+004,1.337580e+004,1.337580e+004
7.061460e+002,2.903790e+004,1.663819e+004,1.663819e+004,,7.805340e+002,2.323032e+004,1.331055e+004,1.331055e+004
7.062460e+002,2.941270e+004,1.655360e+004,1.655360e+004,,7.804340e+002,2.353016e+004,1.324288e+004,1.324288e+004
7.063460e+002,2.924600e+004,1.646956e+004,1.646956e+004,,7.803340e+002,2.339680e+004,1.317565e+004,1.317565e+004
7.064460e+002,2.936200e+004,1.638419e+004,1.638419e+004,,7.802340e+002,2.348960e+004,1.310735e+004,1.310735e+004
7.065460e+002,2.875010e+004,1.630231e+004,1.630231e+004,,7.801340e+002,2.300008e+004,1.304185e+004,1.304185e+004
7.066460e+002,2.880050e+004,1.621955e+004,1.621955e+004,,7.800340e+002,2.304040e+004,1.297564e+004,1.297564e+004
7.067460e+002,2.818550e+004,1.614032e+004,1.614032e+004,,7.799340e+002,2.254840e+004,1.291225e+004,1.291225e+004
7.068460e+002,2.766590e+004,1.606400e+004,1.606400e+004,,7.798340e+002,2.213272e+004,1.285120e+004,1.285120e+004
7.069460e+002,2.752010e+004,1.598815e+004,1.598815e+004,,7.797340e+002,2.201608e+004,1.279052e+004,1.279052e+004
7.070460e+002,2.724720e+004,1.591359e+004,1.591359e+004,,7.796340e+002,2.179776e+004,1.273087e+004,1.273087e+004
7.071460e+002,2.659720e+004,1.584285e+004,1.584285e+004,,7.795340e+002,2.127776e+004,1.267428e+004,1.267428e+004
7.072460e+002,2.605270e+004,1.577525e+004,1.577525e+004,,7.794340e+002,2.084216e+004,1.262020e+004,1.262020e+004
7.073460e+002,2.539420e+004,1.571155e+004,1.571155e+004,,7.793340e+002,2.031536e+004,1.256924e+004,1.256924e+004
7.074460e+002,2.514410e+004,1.564910e+004,1.564910e+004,,7.792340e+002,2.011528e+004,1.251928e+004,1.251928e+004
7.075460e+002,2.437320e+004,1.559133e+004,1.559133e+004,,7.791340e+002,1.949856e+004,1.247306e+004,1.247306e+004
7.076460e+002,2.383400e+004,1.553675e+004,1.553675e+004,,7.790340e+002,1.906720e+004,1.242940e+004,1.242940e+004
7.077460e+002,2.307030e+004,1.548687e+004,1.548687e+004,,7.789340e+002,1.845624e+004,1.238949e+004,1.238949e+004
7.078460e+002,2.259090e+004,1.543983e+004,1.543983e+004,,7.788340e+002,1.807272e+004,1.235186e+004,1.235186e+004
7.079460e+002,2.199500e+004,1.539642e+004,1.539642e+004,,7.787340e+002,1.759600e+004,1.231714e+004,1.231714e+004
7.080460e+002,2.177610e+004,1.535418e+004,1.535418e+004,,7.786340e+002,1.742088e+004,1.228334e+004,1.228334e+004
7.081460e+002,2.112010e+004,1.531600e+004,1.531600e+004,,7.785340e+002,1.689608e+004,1.225280e+004,1.225280e+004
7.082460e+002,2.071740e+004,1.528024e+004,1.528024e+004,,7.784340e+002,1.657392e+004,1.222419e+004,1.222419e+004
7.083460e+002,2.021700e+004,1.524755e+004,1.524755e+004,,7.783340e+002,1.617360e+004,1.219804e+004,1.219804e+004
7.084460e+002,1.970960e+004,1.521800e+004,1.521800e+004,,7.782340e+002,1.576768e+004,1.217440e+004,1.217440e+004
7.085460e+002,1.926950e+004,1.519117e+004,1.519117e+004,,7.781340e+002,1.541560e+004,1.215294e+004,1.215294e+004
7.086460e+002,1.886120e+004,1.516687e+004,1.516687e+004,,7.780340e+002,1.508896e+004,1.213350e+004,1.213350e+004
7.087460e+002,1.894000e+004,1.514189e+004,1.514189e+004,,7.779340e+002,1.515200e+004,1.211351e+004,1.211351e+004
7.088460e+002,1.845510e+004,1.511995e+004,1.511995e+004,,7.778340e+002,1.476408e+004,1.209596e+004,1.209596e+004
7.089460e+002,1.843790e+004,1.509798e+004,1.509798e+004,,7.777340e+002,1.475032e+004,1.207839e+004,1.207839e+004
7.090460e+002,1.811930e+004,1.507798e+004,1.507798e+004,,7.776340e+002,1.449544e+004,1.206238e+004,1.206238e+004
7.091460e+002,1.791930e+004,1.505916e+004,1.505916e+004,,7.775340e+002,1.433544e+004,1.204733e+004,1.204733e+004
7.092460e+002,1.756720e+004,1.504256e+004,1.504256e+004,,7.774340e+002,1.405376e+004,1.203404e+004,1.203404e+004
7.093460e+002,1.754220e+004,1.502600e+004,1.502600e+004,,7.773340e+002,1.403376e+004,1.202080e+004,1.202080e+004
7.094460e+002,1.744660e+004,1.500998e+004,1.500998e+004,,7.772340e+002,1.395728e+004,1.200798e+004,1.200798e+004
7.095460e+002,1.743680e+004,1.499391e+004,1.499391e+004,,7.771340e+002,1.394944e+004,1.199513e+004,1.199513e+004
7.096460e+002,1.734410e+004,1.497834e+004,1.497834e+004,,7.770340e+002,1.387528e+004,1.198268e+004,1.198268e+004
7.097460e+002,1.729680e+004,1.496299e+004,1.496299e+004,,7.769340e+002,1.383744e+004,1.197039e+004,1.197039e+004
7.098460e+002,1.709190e+004,1.494890e+004,1.494890e+004,,7.768340e+002,1.367352e+004,1.195912e+004,1.195912e+004
7.099460e+002,1.680160e+004,1.493663e+004,1.493663e+004,,7.767340e+002,1.344128e+004,1.194930e+004,1.194930e+004
7.100460e+002,1.695170e+004,1.492329e+004,1.492329e+004,,7.766340e+002,1.356136e+004,1.193863e+004,1.193863e+004
7.101460e+002,1.694540e+004,1.490990e+004,1.490990e+004,,7.765340e+002,1.355632e+004,1.192792e+004,1.192792e+004
7.102460e+002,1.701080e+004,1.489599e+004,1.489599e+004,,7.764340e+002,1.360864e+004,1.191679e+004,1.191679e+004
7.103460e+002,1.712090e+004,1.488125e+004,1.488125e+004,,7.763340e+002,1.369672e+004,1.190500e+004,1.190500e+004
7.104460e+002,1.712980e+004,1.486636e+004,1.486636e+004,,7.762340e+002,1.370384e+004,1.189309e+004,1.189309e+004
7.105460e+002,1.709590e+004,1.485160e+004,1.485160e+004,,7.761340e+002,1.367672e+004,1.188128e+004,1.188128e+004
7.106460e+002,1.669930e+004,1.483937e+004,1.483937e+004,,7.760340e+002,1.335944e+004,1.187149e+004,1.187149e+004
7.107460e+002,1.685020e+004,1.482605e+004,1.482605e+004,,7.759340e+002,1.348016e+004,1.186084e+004,1.186084e+004
7.108460e+002,1.651130e+004,1.481489e+004,1.481489e+004,,7.758340e+002,1.320904e+004,1.185191e+004,1.185191e+004
7.109460e+002,1.678900e+004,1.480182e+004,1.480182e+004,,7.757340e+002,1.343120e+004,1.184146e+004,1.184146e+004
7.110460e+002,1.696500e+004,1.478750e+004,1.478750e+004,,7.756340e+002,1.357200e+004,1.183000e+004,1.183000e+004
7.111460e+002,1.684930e+004,1.477385e+004,1.477385e+004,,7.755340e+002,1.347944e+004,1.181908e+004,1.181908e+004
7.112460e+002,1.665480e+004,1.476139e+004,1.476139e+004,,7.754340e+002,1.332384e+004,1.180911e+004,1.180911e+004
7.113460e+002,1.659750e+004,1.474923e+004,1.474923e+004,,7.753340e+002,1.327800e+004,1.179939e+004,1.179939e+004
7.114460e+002,1.651970e+004,1.473751e+004,1.473751e+004,,7.752340e+002,1.321576e+004,1.179001e+004,1.179001e+004
7.115460e+002,1.647090e+004,1.472603e+004,1.472603e+004,,7.751340e+002,1.317672e+004,1.178083e+004,1.178083e+004
7.116460e+002,1.664660e+004,1.471332e+004,1.471332e+004,,7.750340e+002,1.331728e+004,1.177065e+004,1.177065e+004
7.117460e+002,1.666380e+004,1.470040e+004,1.470040e+004,,7.749340e+002,1.333104e+004,1.176032e+004,1.176032e+004
7.118460e+002,1.673410e+004,1.468693e+004,1.468693e+004,,7.748340e+002,1.338728e+004,1.174955e+004,1.174955e+004
7.119460e+002,1.658680e+004,1.467435e+004,1.467435e+004,,7.747340e+002,1.326944e+004,1.173948e+004,1.173948e+004
7.120460e+002,1.659230e+004,1.466165e+004,1.466165e+004,,7.746340e+002,1.327384e+004,1.172932e+004,1.172932e+004
7.121460e+002,1.632690e+004,1.465063e+004,1.465063e+004,,7.745340e+002,1.306152e+004,1.172050e+004,1.172050e+004
7.122460e+002,1.664930e+004,1.463739e+004,1.463739e+004,,7.744340e+002,1.331944e+004,1.170992e+004,1.170992e+004
7.123460e+002,1.638570e+004,1.462582e+004,1.462582e+004,,7.743340e+002,1.310856e+004,1.170065e+004,1.170065e+004
7.124460e+002,1.653270e+004,1.461319e+004,1.461319e+004,,7.742340e+002,1.322616e+004,1.169055e+004,1.169055e+004
7.125460e+002,1.635150e+004,1.460168e+004,1.460168e+004,,7.741340e+002,1.308120e+004,1.168134e+004,1.168134e+004
7.126460e+002,1.628970e+004,1.459050e+004,1.459050e+004,,7.740340e+002,1.303176e+004,1.167240e+004,1.167240e+004
7.127460e+002,1.649160e+004,1.457792e+004,1.457792e+004,,7.739340e+002,1.319328e+004,1.166233e+004,1.166233e+004
7.128460e+002,1.619070e+004,1.456724e+004,1.456724e+004,,7.738340e+002,1.295256e+004,1.165379e+004,1.165379e+004
7.129460e+002,1.639780e+004,1.455512e+004,1.455512e+004,,7.737340e+002,1.311824e+004,1.164409e+004,1.164409e+004
7.130460e+002,1.630370e+004,1.454354e+004,1.454354e+004,,7.736340e+002,1.304296e+004,1.163483e+004,1.163483e+004
7.131460e+002,1.621820e+004,1.453245e+004,1.453245e+004,,7.735340e+002,1.297456e+004,1.162596e+004,1.162596e+004
7.132460e+002,1.644580e+004,1.451978e+004,1.451978e+004,,7.734340e+002,1.315664e+004,1.161582e+004,1.161582e+004
7.133460e+002,1.620410e+004,1.450863e+004,1.450863e+004,,7.733340e+002,1.296328e+004,1.160690e+004,1.160690e+004
7.134460e+002,1.611820e+004,1.449797e+004,1.449797e+004,,7.732340e+002,1.289456e+004,1.159837e+004,1.159837e+004
7.135460e+002,1.639350e+004,1.448542e+004,1.448542e+004,,7.731340e+002,1.311480e+004,1.158833e+004,1.158833e+004
7.136460e+002,1.621450e+004,1.447397e+004,1.447397e+004,,7.730340e+002,1.297160e+004,1.157917e+004,1.157917e+004
7.137460e+002,1.609070e+004,1.446326e+004,1.446326e+004,,7.729340e+002,1.287256e+004,1.157061e+004,1.157061e+004
7.138460e+002,1.636170e+004,1.445069e+004,1.445069e+004,,7.728340e+002,1.308936e+004,1.156055e+004,1.156055e+004
7.139460e+002,1.621250e+004,1.443903e+004,1.443903e+004,,7.727340e+002,1.297000e+004,1.155122e+004,1.155122e+004
7.140460e+002,1.623310e+004,1.442715e+004,1.442715e+004,,7.726340e+002,1.298648e+004,1.154172e+004,1.154172e+004
7.141460e+002,1.592440e+004,1.441723e+004,1.441723e+004,,7.725340e+002,1.273952e+004,1.153379e+004,1.153379e+004
7.142460e+002,1.595250e+004,1.440707e+004,1.440707e+004,,7.724340e+002,1.276200e+004,1.152565e+004,1.152565e+004
7.143460e+002,1.605510e+004,1.439615e+004,1.439615e+004,,7.723340e+002,1.284408e+004,1.151692e+004,1.151692e+004
7.144460e+002,1.575030e+004,1.438719e+004,1.438719e+004,,7.722340e+002,1.260024e+004,1.150975e+004,1.150975e+004
7.145460e+002,1.587510e+004,1.437734e+004,1.437734e+004,,7.721340e+002,1.270008e+004,1.150187e+004,1.150187e+004
7.146460e+002,1.593450e+004,1.436703e+004,1.436703e+004,,7.720340e+002,1.274760e+004,1.149362e+004,1.149362e+004
7.147460e+002,1.602470e+004,1.435605e+004,1.435605e+004,,7.719340e+002,1.281976e+004,1.148484e+004,1.148484e+004
7.148460e+002,1.600560e+004,1.434513e+004,1.434513e+004,,7.718340e+002,1.280448e+004,1.147610e+004,1.147610e+004
7.149460e+002,1.614670e+004,1.433320e+004,1.433320e+004,,7.717340e+002,1.291736e+004,1.146656e+004,1.146656e+004
7.150460e+002,1.583230e+004,1.432327e+004,1.432327e+004,,7.716340e+002,1.266584e+004,1.145862e+004,1.145862e+004
7.151460e+002,1.559080e+004,1.431488e+004,1.431488e+004,,7.715340e+002,1.247264e+004,1.145190e+004,1.145190e+004
7.152460e+002,1.586400e+004,1.430462e+004,1.430462e+004,,7.714340e+002,1.269120e+004,1.144370e+004,1.144370e+004
7.153460e+002,1.568490e+004,1.429548e+004,1.429548e+004,,7.713340e+002,1.254792e+004,1.143638e+004,1.143638e+004
7.154460e+002,1.586450e+004,1.428509e+004,1.428509e+004,,7.712340e+002,1.269160e+004,1.142807e+004,1.142807e+004
7.155460e+002,1.563910e+004,1.427613e+004,1.427613e+004,,7.711340e+002,1.251128e+004,1.142090e+004,1.142090e+004
7.156460e+002,1.583180e+004,1.426583e+004,1.426583e+004,,7.710340e+002,1.266544e+004,1.141266e+004,1.141266e+004
7.157460e+002,1.568500e+004,1.425643e+004,1.425643e+004,,7.709340e+002,1.254800e+004,1.140514e+004,1.140514e+004
7.158460e+002,1.572230e+004,1.424672e+004,1.424672e+004,,7.708340e+002,1.257784e+004,1.139738e+004,1.139738e+004
7.159460e+002,1.555660e+004,1.423805e+004,1.423805e+004,,7.707340e+002,1.244528e+004,1.139044e+004,1.139044e+004
7.160460e+002,1.557240e+004,1.422921e+004,1.422921e+004,,7.706340e+002,1.245792e+004,1.138337e+004,1.138337e+004
7.161460e+002,1.550070e+004,1.422079e+004,1.422079e+004,,7.705340e+002,1.240056e+004,1.137664e+004,1.137664e+004
7.162460e+002,1.527530e+004,1.421381e+004,1.421381e+004,,7.704340e+002,1.222024e+004,1.137105e+004,1.137105e+004
7.163460e+002,1.545790e+004,1.420557e+004,1.420557e+004,,7.703340e+002,1.236632e+004,1.136446e+004,1.136446e+004
7.164460e+002,1.534600e+004,1.419802e+004,1.419802e+004,,7.702340e+002,1.227680e+004,1.135842e+004,1.135842e+004
7.165460e+002,1.531500e+004,1.419063e+004,1.419063e+004,,7.701340e+002,1.225200e+004,1.135250e+004,1.135250e+004
7.166460e+002,1.524870e+004,1.418362e+004,1.418362e+004,,7.700340e+002,1.219896e+004,1.134690e+004,1.134690e+004
7.167460e+002,1.510300e+004,1.417753e+004,1.417753e+004,,7.699340e+002,1.208240e+004,1.134203e+004,1.134203e+004
7.168460e+002,1.515980e+004,1.417103e+004,1.417103e+004,,7.698340e+002,1.212784e+004,1.133682e+004,1.133682e+004
7.169460e+002,1.505740e+004,1.416516e+004,1.416516e+004,,7.697340e+002,1.204592e+004,1.133213e+004,1.133213e+004
7.170460e+002,1.528950e+004,1.415771e+004,1.415771e+004,,7.696340e+002,1.223160e+004,1.132617e+004,1.132617e+004
7.171460e+002,1.494550e+004,1.415250e+004,1.415250e+004,,7.695340e+002,1.195640e+004,1.132200e+004,1.132200e+004
7.172460e+002,1.491370e+004,1.414746e+004,1.414746e+004,,7.694340e+002,1.193096e+004,1.131797e+004,1.131797e+004
7.173460e+002,1.485230e+004,1.414279e+004,1.414279e+004,,7.693340e+002,1.188184e+004,1.131423e+004,1.131423e+004
7.174460e+002,1.483310e+004,1.413822e+004,1.413822e+004,,7.692340e+002,1.186648e+004,1.131058e+004,1.131058e+004
7.175460e+002,1.483580e+004,1.413360e+004,1.413360e+004,,7.691340e+002,1.186864e+004,1.130688e+004,1.130688e+004
7.176460e+002,1.515720e+004,1.412682e+004,1.412682e+004,,7.690340e+002,1.212576e+004,1.130146e+004,1.130146e+004
7.177460e+002,1.482870e+004,1.412218e+004,1.412218e+004,,7.689340e+002,1.186296e+004,1.129774e+004,1.129774e+004
7.178460e+002,1.466770e+004,1.411856e+004,1.411856e+004,,7.688340e+002,1.173416e+004,1.129485e+004,1.129485e+004
7.179460e+002,1.473200e+004,1.411450e+004,1.411450e+004,,7.687340e+002,1.178560e+004,1.129160e+004,1.129160e+004
7.180460e+002,1.479190e+004,1.411002e+004,1.411002e+004,,7.686340e+002,1.183352e+004,1.128801e+004,1.128801e+004
7.181460e+002,1.473660e+004,1.410587e+004,1.410587e+004,,7.685340e+002,1.178928e+004,1.128469e+004,1.128469e+004
7.182460e+002,1.463780e+004,1.410235e+004,1.410235e+004,,7.684340e+002,1.171024e+004,1.128188e+004,1.128188e+004
7.183460e+002,1.469510e+004,1.409842e+004,1.409842e+004,,7.683340e+002,1.175608e+004,1.127874e+004,1.127874e+004
7.184460e+002,1.470470e+004,1.409441e+004,1.409441e+004,,7.682340e+002,1.176376e+004,1.127552e+004,1.127552e+004
7.185460e+002,1.449770e+004,1.409174e+004,1.409174e+004,,7.681340e+002,1.159816e+004,1.127339e+004,1.127339e+004
7.186460e+002,1.441410e+004,1.408960e+004,1.408960e+004,,7.680340e+002,1.153128e+004,1.127168e+004,1.127168e+004
7.187460e+002,1.449460e+004,1.408692e+004,1.408692e+004,,7.679340e+002,1.159568e+004,1.126954e+004,1.126954e+004
7.188460e+002,1.426310e+004,1.408575e+004,1.408575e+004,,7.678340e+002,1.141048e+004,1.126860e+004,1.126860e+004
7.189460e+002,1.455690e+004,1.408263e+004,1.408263e+004,,7.677340e+002,1.164552e+004,1.126611e+004,1.126611e+004
7.190460e+002,1.431990e+004,1.408106e+004,1.408106e+004,,7.676340e+002,1.145592e+004,1.126485e+004,1.126485e+004
7.191460e+002,1.431040e+004,1.407954e+004,1.407954e+004,,7.675340e+002,1.144832e+004,1.126363e+004,1.126363e+004
7.192460e+002,1.441070e+004,1.407735e+004,1.407735e+004,,7.674340e+002,1.152856e+004,1.126188e+004,1.126188e+004
7.193460e+002,1.410920e+004,1.407714e+004,1.407714e+004,,7.673340e+002,1.128736e+004,1.126171e+004,1.126171e+004
7.194460e+002,1.451930e+004,1.407421e+004,1.407421e+004,,7.672340e+002,1.161544e+004,1.125937e+004,1.125937e+004
7.195460e+002,1.434440e+004,1.407242e+004,1.407242e+004,,7.671340e+002,1.147552e+004,1.125794e+004,1.125794e+004
7.196460e+002,1.420750e+004,1.407153e+004,1.407153e+004,,7.670340e+002,1.136600e+004,1.125722e+004,1.125722e+004
7.197460e+002,1.439000e+004,1.406942e+004,1.406942e+004,,7.669340e+002,1.151200e+004,1.125554e+004,1.125554e+004
7.198460e+002,1.439910e+004,1.406724e+004,1.406724e+004,,7.668340e+002,1.151928e+004,1.125379e+004,1.125379e+004
7.199460e+002,1.413270e+004,1.406680e+004,1.406680e+004,,7.667340e+002,1.130616e+004,1.125344e+004,1.125344e+004
7.200460e+002,1.430280e+004,1.406524e+004,1.406524e+004,,7.666340e+002,1.144224e+004,1.125219e+004,1.125219e+004
7.201460e+002,1.436390e+004,1.406326e+004,1.406326e+004,,7.665340e+002,1.149112e+004,1.125061e+004,1.125061e+004
7.202460e+002,1.428460e+004,1.406180e+004,1.406180e+004,,7.664340e+002,1.142768e+004,1.124944e+004,1.124944e+004
7.203460e+002,1.430390e+004,1.406019e+004,1.406019e+004,,7.663340e+002,1.144312e+004,1.124816e+004,1.124816e+004
7.204460e+002,1.419310e+004,1.405931e+004,1.405931e+004,,7.662340e+002,1.135448e+004,1.124745e+004,1.124745e+004
7.205460e+002,1.406010e+004,1.405931e+004,1.405931e+004,,7.661340e+002,1.124808e+004,1.124745e+004,1.124745e+004
7.206460e+002,1.399630e+004,1.405890e+004,1.405890e+004,,7.660340e+002,1.119704e+004,1.124712e+004,1.124712e+004
7.207460e+002,1.413230e+004,1.405841e+004,1.405841e+004,,7.659340e+002,1.130584e+004,1.124673e+004,1.124673e+004
7.208460e+002,1.418160e+004,1.405760e+004,1.405760e+004,,7.658340e+002,1.134528e+004,1.124608e+004,1.124608e+004
7.209460e+002,1.429320e+004,1.405604e+004,1.405604e+004,,7.657340e+002,1.143456e+004,1.124483e+004,1.124483e+004
7.210460e+002,1.415360e+004,1.405539e+004,1.405539e+004,,7.656340e+002,1.132288e+004,1.124431e+004,1.124431e+004
7.211460e+002,1.421210e+004,1.405435e+004,1.405435e+004,,7.655340e+002,1.136968e+004,1.124348e+004,1.124348e+004
7.212460e+002,1.408710e+004,1.405414e+004,1.405414e+004,,7.654340e+002,1.126968e+004,1.124331e+004,1.124331e+004
7.213460e+002,1.398370e+004,1.405367e+004,1.405367e+004,,7.653340e+002,1.118696e+004,1.124294e+004,1.124294e+004
7.214460e+002,1.417580e+004,1.405287e+004,1.405287e+004,,7.652340e+002,1.134064e+004,1.124229e+004,1.124229e+004
7.215460e+002,1.401890e+004,1.405264e+004,1.405264e+004,,7.651340e+002,1.121512e+004,1.124212e+004,1.124212e+004
7.216460e+002,1.403920e+004,1.405256e+004,1.405256e+004,,7.650340e+002,1.123136e+004,1.124205e+004,1.124205e+004
7.217460e+002,1.388940e+004,1.405149e+004,1.405149e+004,,7.649340e+002,1.111152e+004,1.124119e+004,1.124119e+004
7.218460e+002,1.418520e+004,1.405060e+004,1.405060e+004,,7.648340e+002,1.134816e+004,1.124048e+004,1.124048e+004
7.219460e+002,1.390130e+004,1.404963e+004,1.404963e+004,,7.647340e+002,1.112104e+004,1.123970e+004,1.123970e+004
7.220460e+002,1.397150e+004,1.404912e+004,1.404912e+004,,7.646340e+002,1.117720e+004,1.123929e+004,1.123929e+004
7.221460e+002,1.395030e+004,1.404847e+004,1.404847e+004,,7.645340e+002,1.116024e+004,1.123878e+004,1.123878e+004
7.222460e+002,1.422520e+004,1.422520e+004,1.422520e+004,,7.644340e+002,1.138016e+004,1.138016e+004,1.138016e+004
7.223460e+002,1.426660e+004,1.426660e+004,1.426660e+004,,7.643340e+002,1.141328e+004,1.141328e+004,1.141328e+004
7.224460e+002,1.409180e+004,1.409180e+004,1.409180e+004,,7.642340e+002,1.127344e+004,1.127344e+004,1.127344e+004
7.225460e+002,1.398050e+004,1.398050e+004,1.398050e+004,,7.641340e+002,1.118440e+004,1.118440e+004,1.118440e+004
7.226460e+002,1.403220e+004,1.403220e+004,1.403220e+004,,7.640340e+002,1.122576e+004,1.122576e+004,1.122576e+004
7.227460e+002,1.422230e+004,1.422230e+004,1.422230e+004,,7.639340e+002,1.137784e+004,1.137784e+004,1.137784e+004
7.228460e+002,1.410680e+004,1.410680e+004,1.410680e+004,,7.638340e+002,1.128544e+004,1.128544e+004,1.128544e+004
7.229460e+002,1.408970e+004,1.408970e+004,1.408970e+004,,7.637340e+002,1.127176e+004,1.127176e+004,1.127176e+004
7.230460e+002,1.411880e+004,1.411880e+004,1.411880e+004,,7.636340e+002,1.129504e+004,1.129504e+004,1.129504e+004
7.231460e+002,1.420750e+004,1.420750e+004,1.420750e+004,,7.635340e+002,1.136600e+004,1.136600e+004,1.136600e+004
7.232460e+002,1.398760e+004,1.398760e+004,1.398760e+004,,7.634340e+002,1.119008e+004,1.119008e+004,1.119008e+004
