"Cycle 1:Pt #001:Co2p Scan"
,Characteristic Energy eV,1.486680e+003,Acquisition Time s,1.250000e+000
Name,,
Position,,
FWHM,,
Area,,
Lineshape,,
K.E.,Counts,Background,Envelope,,B.E.,CPS,Background CPS,Envelope CPS
6.704730e+002,2.178570e+004,2.178570e+004,2.178570e+004,,8.162070e+002,1.742856e+004,1.742856e+004,1.742856e+004
6.705730e+002,2.173010e+004,2.173010e+004,2.173010e+004,,8.161070e+002,1.738408e+004,1.738408e+004,1.738408e+004
6.706730e+002,2.142640e+004,2.142640e+004,2.142640e+004,,8.160070e+002,1.714112e+004,1.714112e+004,1.714112e+004
6.707730e+002,2.175810e+004,2.175810e+004,2.175810e+004,,8.159070e+002,1.740648e+004,1.740648e+004,1.740648e+004
6.708730e+002,2.161780e+004,2.161780e+004,2.161780e+004,,8.158070e+002,1.729424e+004,1.729424e+004,1.729424e+004
6.709730e+002,2.171720e+004,2.171720e+004,2.171720e+004,,8.157070e+002,1.737376e+004,1.737376e+004,1.737376e+004
6.710730e+002,2.169070e+004,2.169070e+004,2.169070e+004,,8.156070e+002,1.735256e+004,1.735256e+004,1.735256e+004
6.711730e+002,2.156080e+004,2.156080e+004,2.156080e+004,,8.155070e+002,1.724864e+004,1.724864e+004,1.724864e+004
6.712730e+002,2.178600e+004,2.178600e+004,2.178600e+004,,8.154070e+002,1.742880e+004,1.742880e+004,1.742880e+004
6.713730e+002,2.164580e+004,2.164580e+004,2.164580e+004,,8.153070e+002,1.731664e+004,1.731664e+004,1.731664e+004
6.714730e+002,2.167520e+004,2.167520e+004,2.167520e+004,,8.152070e+002,1.734016e+004,1.734016e+004,1.734016e+004
6.715730e+002,2.138120e+004,2.138120e+004,2.138120e+004,,8.151070e+002,1.710496e+004,1.710496e+004,1.710496e+004
6.716730e+002,2.147940e+004,2.147940e+004,2.147940e+004,,8.150070e+002,1.718352e+004,1.718352e+004,1.718352e+004
6.717730e+002,2.185650e+004,2.185650e+004,2.185650e+004,,8.149070e+002,1.748520e+004,1.748520e+004,1.748520e+004
6.718730e+002,2.170860e+004,2.170860e+004,2.170860e+004,,8.148070e+002,1.736688e+004,1.736688e+004,1.736688e+004
6.719730e+002,2.166000e+004,2.166000e+004,2.166000e+004,,8.147070e+002,1.732800e+004,1.732800e+004,1.732800e+004
6.720730e+002,2.160710e+004,2.160710e+004,2.160710e+004,,8.146070e+002,1.728568e+004,1.728568e+004,1.728568e+004
6.721730e+002,2.158510e+004,2.158510e+004,2.158510e+004,,8.145070e+002,1.726808e+004,1.726808e+004,1.726808e+004
6.722730e+002,2.183610e+004,2.183610e+004,2.183610e+004,,8.144070e+002,1.746888e+004,1.746888e+004,1.746888e+004
6.723730e+002,2.166570e+004,2.166570e+004,2.166570e+004,,8.143070e+002,1.733256e+004,1.733256e+004,1.733256e+004
6.724730e+002,2.156460e+004,2.156460e+004,2.156460e+004,,8.142070e+002,1.725168e+004,1.725168e+004,1.725168e+004
6.725730e+002,2.115670e+004,2.115670e+004,2.115670e+004,,8.141070e+002,1.692536e+004,1.692536e+004,1.692536e+004
6.726730e+002,2.155880e+004,2.155880e+004,2.155880e+004,,8.140070e+002,1.724704e+004,1.724704e+004,1.724704e+004
6.727730e+002,2.179810e+004,2.179810e+004,2.179810e+004,,8.139070e+002,1.743848e+004,1.743848e+004,1.743848e+004
6.728730e+002,2.156720e+004,2.156720e+004,2.156720e+004,,8.138070e+002,1.725376e+004,1.725376e+004,1.725376e+004
6.729730e+002,2.132290e+004,2.132290e+004,2.132290e+004,,8.137070e+002,1.705832e+004,1.705832e+004,1.705832e+004
6.730730e+002,2.150270e+004,2.150270e+004,2.150270e+004,,8.136070e+002,1.720216e+004,1.720216e+004,1.720216e+004
6.731730e+002,2.122860e+004,2.122860e+004,2.122860e+004,,8.135070e+002,1.698288e+004,1.698288e+004,1.698288e+004
6.732730e+002,2.145610e+004,2.145610e+004,2.145610e+004,,8.134070e+002,1.716488e+004,1.716488e+004,1.716488e+004
6.733730e+002,2.144580e+004,2.144580e+004,2.144580e+004,,8.133070e+002,1.715664e+004,1.715664e+004,1.715664e+004
6.734730e+002,2.130260e+004,2.130260e+004,2.130260e+004,,8.132070e+002,1.704208e+004,1.704208e+004,1.704208e+004
6.735730e+002,2.152090e+004,2.152090e+004,2.152090e+004,,8.131070e+002,1.721672e+004,1.721672e+004,1.721672e+004
6.736730e+002,2.142370e+004,2.142370e+004,2.142370e+004,,8.130070e+002,1.713896e+004,1.713896e+004,1.713896e+004
6.737730e+002,2.124550e+004,2.124550e+004,2.124550e+004,,8.129070e+002,1.699640e+004,1.699640e+004,1.699640e+004
6.738730e+002,2.128980e+004,2.128980e+004,2.128980e+004,,8.128070e+002,1.703184e+004,1.703184e+004,1.703184e+004
6.739730e+002,2.137990e+004,2.137990e+004,2.137990e+004,,8.127070e+002,1.710392e+004,1.710392e+004,1.710392e+004
6.740730e+002,2.147630e+004,2.147630e+004,2.147630e+004,,8.126070e+002,1.718104e+004,1.718104e+004,1.718104e+004
6.741730e+002,2.114460e+004,2.114460e+004,2.114460e+004,,8.125070e+002,1.691568e+004,1.691568e+004,1.691568e+004
6.742730e+002,2.113650e+004,2.113650e+004,2.113650e+004,,8.124070e+002,1.690920e+004,1.690920e+004,1.690920e+004
6.743730e+002,2.148400e+004,2.148400e+004,2.148400e+004,,8.123070e+002,1.718720e+004,1.718720e+004,1.718720e+004
6.744730e+002,2.125560e+004,2.125560e+004,2.125560e+004,,8.122070e+002,1.700448e+004,1.700448e+004,1.700448e+004
6.745730e+002,2.106000e+004,2.106000e+004,2.106000e+004,,8.121070e+002,1.684800e+004,1.684800e+004,1.684800e+004
6.746730e+002,2.117180e+004,2.117180e+004,2.117180e+004,,8.120070e+002,1.693744e+004,1.693744e+004,1.693744e+004
6.747730e+002,2.112990e+004,2.112990e+004,2.112990e+004,,8.119070e+002,1.690392e+004,1.690392e+004,1.690392e+004
6.748730e+002,2.142290e+004,2.142290e+004,2.142290e+004,,8.118070e+002,1.713832e+004,1.713832e+004,1.713832e+004
6.749730e+002,2.103820e+004,2.103820e+004,2.103820e+004,,8.117070e+002,1.683056e+004,1.683056e+004,1.683056e+004
6.750730e+002,2.107840e+004,2.107840e+004,2.107840e+004,,8.116070e+002,1.686272e+004,1.686272e+004,1.686272e+004
6.751730e+002,2.131380e+004,2.131380e+004,2.131380e+004,,8.115070e+002,1.705104e+004,1.705104e+004,1.705104e+004
6.752730e+002,2.113500e+004,2.113500e+004,2.113500e+004,,8.114070e+002,1.690800e+004,1.690800e+004,1.690800e+004
6.753730e+002,2.107980e+004,2.107980e+004,2.107980e+004,,8.113070e+002,1.686384e+004,1.686384e+004,1.686384e+004
6.754730e+002,2.126150e+004,2.126150e+004,2.126150e+004,,8.112070e+002,1.700920e+004,1.700920e+004,1.700920e+004
6.755730e+002,2.115660e+004,2.115660e+004,2.115660e+004,,8.111070e+002,1.692528e+004,1.692528e+004,1.692528e+004
6.756730e+002,2.124380e+004,2.124380e+004,2.124380e+004,,8.110070e+002,1.699504e+004,1.699504e+004,1.699504e+004
6.757730e+002,2.124700e+004,2.124700e+004,2.124700e+004,,8.109070e+002,1.699760e+004,1.699760e+004,1.699760e+004
6.758730e+002,2.124650e+004,2.124650e+004,2.124650e+004,,8.108070e+002,1.699720e+004,1.699720e+004,1.699720e+004
6.759730e+002,2.129950e+004,2.129950e+004,2.129950e+004,,8.107070e+002,1.703960e+004,1.703960e+004,1.703960e+004
6.760730e+002,2.123320e+004,2.123320e+004,2.123320e+004,,8.106070e+002,1.698656e+004,1.698656e+004,1.698656e+004
6.761730e+002,2.118980e+004,2.118980e+004,2.118980e+004,,8.105070e+002,1.695184e+004,1.695184e+004,1.695184e+004
6.762730e+002,2.107460e+004,2.107460e+004,2.107460e+004,,8.104070e+002,1.685968e+004,1.685968e+004,1.685968e+004
6.763730e+002,2.109420e+004,2.109420e+004,2.109420e+004,,8.103070e+002,1.687536e+004,1.687536e+004,1.687536e+004
6.764730e+002,2.099680e+004,2.099680e+004,2.099680e+004,,8.102070e+002,1.679744e+004,1.679744e+004,1.679744e+004
6.765730e+002,2.116810e+004,2.116810e+004,2.116810e+004,,8.101070e+002,1.693448e+004,1.693448e+004,1.693448e+004
6.766730e+002,2.103520e+004,2.103520e+004,2.103520e+004,,8.100070e+002,1.682816e+004,1.682816e+004,1.682816e+004
6.767730e+002,2.097870e+004,2.097870e+004,2.097870e+004,,8.099070e+002,1.678296e+004,1.678296e+004,1.678296e+004
6.768730e+002,2.118010e+004,2.118010e+004,2.118010e+004,,8.098070e+002,1.694408e+004,1.694408e+004,1.694408e+004
6.769730e+002,2.099570e+004,2.099570e+004,2.099570e+004,,8.097070e+002,1.679656e+004,1.679656e+004,1.679656e+004
6.770730e+002,2.122900e+004,2.122900e+004,2.122900e+004,,8.096070e+002,1.698320e+004,1.698320e+004,1.698320e+004
6.771730e+002,2.105370e+004,2.105370e+004,2.105370e+004,,8.095070e+002,1.684296e+004,1.684296e+004,1.684296e+004
6.772730e+002,2.110540e+004,2.110540e+004,2.110540e+004,,8.094070e+002,1.688432e+004,1.688432e+004,1.688432e+004
6.773730e+002,2.107090e+004,2.107090e+004,2.107090e+004,,8.093070e+002,1.685672e+004,1.685672e+004,1.685672e+004
6.774730e+002,2.113870e+004,2.113870e+004,2.113870e+004,,8.092070e+002,1.691096e+004,1.691096e+004,1.691096e+004
6.775730e+002,2.096830e+004,2.096830e+004,2.096830e+004,,8.091070e+002,1.677464e+004,1.677464e+004,1.677464e+004
6.776730e+002,2.114610e+004,2.114610e+004,2.114610e+004,,8.090070e+002,1.691688e+004,1.691688e+004,1.691688e+004
6.777730e+002,2.118580e+004,2.118580e+004,2.118580e+004,,8.089070e+002,1.694864e+004,1.694864e+004,1.694864e+004
6.778730e+002,2.129570e+004,2.129570e+004,2.129570e+004,,8.088070e+002,1.703656e+004,1.703656e+004,1.703656e+004
6.779730e+002,2.100730e+004,2.100730e+004,2.100730e+004,,8.087070e+002,1.680584e+004,1.680584e+004,1.680584e+004
6.780730e+002,2.095010e+004,2.095010e+004,2.095010e+004,,8.086070e+002,1.676008e+004,1.676008e+004,1.676008e+004
6.781730e+002,2.110440e+004,2.110440e+004,2.110440e+004,,8.085070e+002,1.688352e+004,1.688352e+004,1.688352e+004
6.782730e+002,2.108140e+004,2.108140e+004,2.108140e+004,,8.084070e+002,1.686512e+004,1.686512e+004,1.686512e+004
6.783730e+002,2.109470e+004,2.109470e+004,2.109470e+004,,8.083070e+002,1.687576e+004,1.687576e+004,1.687576e+004
6.784730e+002,2.120900e+004,2.120900e+004,2.120900e+004,,8.082070e+002,1.696720e+004,1.696720e+004,1.696720e+004
6.785730e+002,2.143360e+004,2.143360e+004,2.143360e+004,,8.081070e+002,1.714688e+004,1.714688e+004,1.714688e+004
6.786730e+002,2.111000e+004,2.111000e+004,2.111000e+004,,8.080070e+002,1.688800e+004,1.688800e+004,1.688800e+004
6.787730e+002,2.123130e+004,2.123130e+004,2.123130e+004,,8.079070e+002,1.698504e+004,1.698504e+004,1.698504e+004
6.788730e+002,2.143230e+004,2.143230e+004,2.143230e+004,,8.078070e+002,1.714584e+004,1.714584e+004,1.714584e+004
6.789730e+002,2.108200e+004,2.108200e+004,2.108200e+004,,8.077070e+002,1.686560e+004,1.686560e+004,1.686560e+004
6.790730e+002,2.112860e+004,2.112860e+004,2.112860e+004,,8.076070e+002,1.690288e+004,1.690288e+004,1.690288e+004
6.791730e+002,2.115860e+004,2.115860e+004,2.115860e+004,,8.075070e+002,1.692688e+004,1.692688e+004,1.692688e+004
6.792730e+002,2.127390e+004,2.127390e+004,2.127390e+004,,8.074070e+002,1.701912e+004,1.701912e+004,1.701912e+004
6.793730e+002,2.148680e+004,2.148680e+004,2.148680e+004,,8.073070e+002,1.718944e+004,1.718944e+004,1.718944e+004
6.794730e+002,2.157390e+004,2.157390e+004,2.157390e+004,,8.072070e+002,1.725912e+004,1.725912e+004,1.725912e+004
6.795730e+002,2.124710e+004,2.124710e+004,2.124710e+004,,8.071070e+002,1.699768e+004,1.699768e+004,1.699768e+004
6.796730e+002,2.135980e+004,2.135980e+004,2.135980e+004,,8.070070e+002,1.708784e+004,1.708784e+004,1.708784e+004
6.797730e+002,2.126260e+004,2.126260e+004,2.126260e+004,,8.069070e+002,1.701008e+004,1.701008e+004,1.701008e+004
6.798730e+002,2.118730e+004,2.118730e+004,2.118730e+004,,8.068070e+002,1.694984e+004,1.694984e+004,1.694984e+004
6.799730e+002,2.132990e+004,2.132990e+004,2.132990e+004,,8.067070e+002,1.706392e+004,1.706392e+004,1.706392e+004
6.800730e+002,2.142500e+004,2.142500e+004,2.142500e+004,,8.066070e+002,1.714000e+004,1.714000e+004,1.714000e+004
6.801730e+002,2.158520e+004,2.158520e+004,2.158520e+004,,8.065070e+002,1.726816e+004,1.726816e+004,1.726816e+004
6.802730e+002,2.170430e+004,2.170430e+004,2.170430e+004,,8.064070e+002,1.736344e+004,1.736344e+004,1.736344e+004
6.803730e+002,2.162870e+004,2.162870e+004,2.162870e+004,,8.063070e+002,1.730296e+004,1.730296e+004,1.730296e+004
6.804730e+002,2.165090e+004,2.165090e+004,2.165090e+004,,8.062070e+002,1.732072e+004,1.732072e+004,1.732072e+004
6.805730e+002,2.169560e+004,2.169560e+004,2.169560e+004,,8.061070e+002,1.735648e+004,1.735648e+004,1.735648e+004
6.806730e+002,2.167220e+004,2.167220e+004,2.167220e+004,,8.060070e+002,1.733776e+004,1.733776e+004,1.733776e+004
6.807730e+002,2.154610e+004,2.154610e+004,2.154610e+004,,8.059070e+002,1.723688e+004,1.723688e+004,1.723688e+004
6.808730e+002,2.152930e+004,2.152930e+004,2.152930e+004,,8.058070e+002,1.722344e+004,1.722344e+004,1.722344e+004
6.809730e+002,2.199750e+004,2.199750e+004,2.199750e+004,,8.057070e+002,1.759800e+004,1.759800e+004,1.759800e+004
6.810730e+002,2.183230e+004,2.183230e+004,2.183230e+004,,8.056070e+002,1.746584e+004,1.746584e+004,1.746584e+004
6.811730e+002,2.215230e+004,2.215230e+004,2.215230e+004,,8.055070e+002,1.772184e+004,1.772184e+004,1.772184e+004
6.812730e+002,2.166820e+004,2.166820e+004,2.166820e+004,,8.054070e+002,1.733456e+004,1.733456e+004,1.733456e+004
6.813730e+002,2.194830e+004,2.194830e+004,2.194830e+004,,8.053070e+002,1.755864e+004,1.755864e+004,1.755864e+004
6.814730e+002,2.161890e+004,2.161890e+004,2.161890e+004,,8.052070e+002,1.729512e+004,1.729512e+004,1.729512e+004
6.815730e+002,2.216520e+004,2.216520e+004,2.216520e+004,,8.051070e+002,1.773216e+004,1.773216e+004,1.773216e+004
6.816730e+002,2.224390e+004,2.224390e+004,2.224390e+004,,8.050070e+002,1.779512e+004,1.779512e+004,1.779512e+004
6.817730e+002,2.214290e+004,2.214290e+004,2.214290e+004,,8.049070e+002,1.771432e+004,1.771432e+004,1.771432e+004
6.818730e+002,2.209260e+004,2.209260e+004,2.209260e+004,,8.048070e+002,1.767408e+004,1.767408e+004,1.767408e+004
6.819730e+002,2.206470e+004,2.206470e+004,2.206470e+004,,8.047070e+002,1.765176e+004,1.765176e+004,1.765176e+004
6.820730e+002,2.250140e+004,2.250140e+004,2.250140e+004,,8.046070e+002,1.800112e+004,1.800112e+004,1.800112e+004
6.821730e+002,2.232620e+004,2.232620e+004,2.232620e+004,,8.045070e+002,1.786096e+004,1.786096e+004,1.786096e+004
6.822730e+002,2.258680e+004,2.258680e+004,2.258680e+004,,8.044070e+002,1.806944e+004,1.806944e+004,1.806944e+004
6.823730e+002,2.256060e+004,2.256060e+004,2.256060e+004,,8.043070e+002,1.804848e+004,1.804848e+004,1.804848e+004
6.824730e+002,2.241130e+004,2.241130e+004,2.241130e+004,,8.042070e+002,1.792904e+004,1.792904e+004,1.792904e+004
6.825730e+002,2.282180e+004,2.282180e+004,2.282180e+004,,8.041070e+002,1.825744e+004,1.825744e+004,1.825744e+004
6.826730e+002,2.302580e+004,2.302580e+004,2.302580e+004,,8.040070e+002,1.842064e+004,1.842064e+004,1.842064e+004
6.827730e+002,2.295970e+004,2.295970e+004,2.295970e+004,,8.039070e+002,1.836776e+004,1.836776e+004,1.836776e+004
6.828730e+002,2.280540e+004,2.280540e+004,2.280540e+004,,8.038070e+002,1.824432e+004,1.824432e+004,1.824432e+004
6.829730e+002,2.289790e+004,2.289790e+004,2.289790e+004,,8.037070e+002,1.831832e+004,1.831832e+004,1.831832e+004
6.830730e+002,2.302270e+004,2.302270e+004,2.302270e+004,,8.036070e+002,1.841816e+004,1.841816e+004,1.841816e+004
6.831730e+002,2.289090e+004,2.289090e+004,2.289090e+004,,8.035070e+002,1.831272e+004,1.831272e+004,1.831272e+004
6.832730e+002,2.323900e+004,2.323900e+004,2.323900e+004,,8.034070e+002,1.859120e+004,1.859120e+004,1.859120e+004
6.833730e+002,2.316750e+004,2.316750e+004,2.316750e+004,,8.033070e+002,1.853400e+004,1.853400e+004,1.853400e+004
6.834730e+002,2.338330e+004,2.338330e+004,2.338330e+004,,8.032070e+002,1.870664e+004,1.870664e+004,1.870664e+004
6.835730e+002,2.348340e+004,2.348340e+004,2.348340e+004,,8.031070e+002,1.878672e+004,1.878672e+004,1.878672e+004
6.836730e+002,2.345050e+004,2.345050e+004,2.345050e+004,,8.030070e+002,1.876040e+004,1.876040e+004,1.876040e+004
6.837730e+002,2.348350e+004,2.348350e+004,2.348350e+004,,8.029070e+002,1.878680e+004,1.878680e+004,1.878680e+004
6.838730e+002,2.326970e+004,2.326970e+004,2.326970e+004,,8.028070e+002,1.861576e+004,1.861576e+004,1.861576e+004
6.839730e+002,2.358370e+004,2.358370e+004,2.358370e+004,,8.027070e+002,1.886696e+004,1.886696e+004,1.886696e+004
6.840730e+002,2.367750e+004,2.367750e+004,2.367750e+004,,8.026070e+002,1.894200e+004,1.894200e+004,1.894200e+004
6.841730e+002,2.365560e+004,2.365560e+004,2.365560e+004,,8.025070e+002,1.892448e+004,1.892448e+004,1.892448e+004
6.842730e+002,2.374690e+004,2.374690e+004,2.374690e+004,,8.024070e+002,1.899752e+004,1.899752e+004,1.899752e+004
6.843730e+002,2.369640e+004,2.369640e+004,2.369640e+004,,8.023070e+002,1.895712e+004,1.895712e+004,1.895712e+004
6.844730e+002,2.358750e+004,2.358750e+004,2.358750e+004,,8.022070e+002,1.887000e+004,1.887000e+004,1.887000e+004
6.845730e+002,2.368580e+004,2.368580e+004,2.368580e+004,,8.021070e+002,1.894864e+004,1.894864e+004,1.894864e+004
6.846730e+002,2.354150e+004,2.354150e+004,2.354150e+004,,8.020070e+002,1.883320e+004,1.883320e+004,1.883320e+004
6.847730e+002,2.335460e+004,2.335460e+004,2.335460e+004,,8.019070e+002,1.868368e+004,1.868368e+004,1.868368e+004
6.848730e+002,2.335740e+004,2.335740e+004,2.335740e+004,,8.018070e+002,1.868592e+004,1.868592e+004,1.868592e+004
6.849730e+002,2.354160e+004,2.354160e+004,2.354160e+004,,8.017070e+002,1.883328e+004,1.883328e+004,1.883328e+004
6.850730e+002,2.350790e+004,2.350790e+004,2.350790e+004,,8.016070e+002,1.880632e+004,1.880632e+004,1.880632e+004
6.851730e+002,2.338900e+004,2.338900e+004,2.338900e+004,,8.015070e+002,1.871120e+004,1.871120e+004,1.871120e+004
6.852730e+002,2.349340e+004,2.349340e+004,2.349340e+004,,8.014070e+002,1.879472e+004,1.879472e+004,1.879472e+004
6.853730e+002,2.322100e+004,2.322100e+004,2.322100e+004,,8.013070e+002,1.857680e+004,1.857680e+004,1.857680e+004
6.854730e+002,2.332930e+004,2.332930e+004,2.332930e+004,,8.012070e+002,1.866344e+004,1.866344e+004,1.866344e+004
6.855730e+002,2.297340e+004,2.297340e+004,2.297340e+004,,8.011070e+002,1.837872e+004,1.837872e+004,1.837872e+004
6.856730e+002,2.292090e+004,2.292090e+004,2.292090e+004,,8.010070e+002,1.833672e+004,1.833672e+004,1.833672e+004
6.857730e+002,2.300100e+004,2.300100e+004,2.300100e+004,,8.009070e+002,1.840080e+004,1.840080e+004,1.840080e+004
6.858730e+002,2.281930e+004,2.281930e+004,2.281930e+004,,8.008070e+002,1.825544e+004,1.825544e+004,1.825544e+004
6.859730e+002,2.274970e+004,2.274970e+004,2.274970e+004,,8.007070e+002,1.819976e+004,1.819976e+004,1.819976e+004
6.860730e+002,2.281970e+004,2.281970e+004,2.281970e+004,,8.006070e+002,1.825576e+004,1.825576e+004,1.825576e+004
6.861730e+002,2.257180e+004,2.257180e+004,2.257180e+004,,8.005070e+002,1.805744e+004,1.805744e+004,1.805744e+004
6.862730e+002,2.245530e+004,2.245530e+004,2.245530e+004,,8.004070e+002,1.796424e+004,1.796424e+004,1.796424e+004
6.863730e+002,2.249210e+004,2.249210e+004,2.249210e+004,,8.003070e+002,1.799368e+004,1.799368e+004,1.799368e+004
6.864730e+002,2.248250e+004,2.248250e+004,2.248250e+004,,8.002070e+002,1.798600e+004,1.798600e+004,1.798600e+004
6.865730e+002,2.237570e+004,2.237570e+004,2.237570e+004,,8.001070e+002,1.790056e+004,1.790056e+004,1.790056e+004
6.866730e+002,2.239100e+004,2.239100e+004,2.239100e+004,,8.000070e+002,1.791280e+004,1.791280e+004,1.791280e+004
6.867730e+002,2.225070e+004,2.225070e+004,2.225070e+004,,7.999070e+002,1.780056e+004,1.780056e+004,1.780056e+004
6.868730e+002,2.221510e+004,2.221510e+004,2.221510e+004,,7.998070e+002,1.777208e+004,1.777208e+004,1.777208e+004
6.869730e+002,2.209960e+004,2.209960e+004,2.209960e+004,,7.997070e+002,1.767968e+004,1.767968e+004,1.767968e+004
6.870730e+002,2.219750e+004,2.219750e+004,2.219750e+004,,7.996070e+002,1.775800e+004,1.775800e+004,1.775800e+004
6.871730e+002,2.207130e+004,2.207130e+004,2.207130e+004,,7.995070e+002,1.765704e+004,1.765704e+004,1.765704e+004
6.872730e+002,2.230430e+004,2.230430e+004,2.230430e+004,,7.994070e+002,1.784344e+004,1.784344e+004,1.784344e+004
6.873730e+002,2.198050e+004,2.198050e+004,2.198050e+004,,7.993070e+002,1.758440e+004,1.758440e+004,1.758440e+004
6.874730e+002,2.212450e+004,2.212450e+004,2.212450e+004,,7.992070e+002,1.769960e+004,1.769960e+004,1.769960e+004
6.875730e+002,2.225380e+004,2.225380e+004,2.225380e+004,,7.991070e+002,1.780304e+004,1.780304e+004,1.780304e+004
6.876730e+002,2.220210e+004,2.220210e+004,2.220210e+004,,7.990070e+002,1.776168e+004,1.776168e+004,1.776168e+004
6.877730e+002,2.229380e+004,2.229380e+004,2.229380e+004,,7.989070e+002,1.783504e+004,1.783504e+004,1.783504e+004
6.878730e+002,2.218780e+004,2.218780e+004,2.218780e+004,,7.988070e+002,1.775024e+004,1.775024e+004,1.775024e+004
6.879730e+002,2.223240e+004,2.223240e+004,2.223240e+004,,7.987070e+002,1.778592e+004,1.778592e+004,1.778592e+004
6.880730e+002,2.247940e+004,2.247940e+004,2.247940e+004,,7.986070e+002,1.798352e+004,1.798352e+004,1.798352e+004
6.881730e+002,2.237240e+004,2.237240e+004,2.237240e+004,,7.985070e+002,1.789792e+004,1.789792e+004,1.789792e+004
6.882730e+002,2.279340e+004,2.279340e+004,2.279340e+004,,7.984070e+002,1.823472e+004,1.823472e+004,1.823472e+004
6.883730e+002,2.241670e+004,2.241670e+004,2.241670e+004,,7.983070e+002,1.793336e+004,1.793336e+004,1.793336e+004
6.884730e+002,2.266030e+004,2.266030e+004,2.266030e+004,,7.982070e+002,1.812824e+004,1.812824e+004,1.812824e+004
6.885730e+002,2.298820e+004,2.298820e+004,2.298820e+004,,7.981070e+002,1.839056e+004,1.839056e+004,1.839056e+004
6.886730e+002,2.291150e+004,2.291150e+004,2.291150e+004,,7.980070e+002,1.832920e+004,1.832920e+004,1.832920e+004
6.887730e+002,2.292300e+004,2.292300e+004,2.292300e+004,,7.979070e+002,1.833840e+004,1.833840e+004,1.833840e+004
6.888730e+002,2.320740e+004,2.320740e+004,2.320740e+004,,7.978070e+002,1.856592e+004,1.856592e+004,1.856592e+004
6.889730e+002,2.332330e+004,2.332330e+004,2.332330e+004,,7.977070e+002,1.865864e+004,1.865864e+004,1.865864e+004
6.890730e+002,2.335020e+004,2.335020e+004,2.335020e+004,,7.976070e+002,1.868016e+004,1.868016e+004,1.868016e+004
6.891730e+002,2.347650e+004,2.347650e+004,2.347650e+004,,7.975070e+002,1.878120e+004,1.878120e+004,1.878120e+004
6.892730e+002,2.374710e+004,2.374710e+004,2.374710e+004,,7.974070e+002,1.899768e+004,1.899768e+004,1.899768e+004
6.893730e+002,2.411300e+004,2.411300e+004,2.411300e+004,,7.973070e+002,1.929040e+004,1.929040e+004,1.929040e+004
6.894730e+002,2.411770e+004,2.411770e+004,2.411770e+004,,7.972070e+002,1.929416e+004,1.929416e+004,1.929416e+004
6.895730e+002,2.400990e+004,2.400990e+004,2.400990e+004,,7.971070e+002,1.920792e+004,1.920792e+004,1.920792e+004
6.896730e+002,2.431160e+004,2.431160e+004,2.431160e+004,,7.970070e+002,1.944928e+004,1.944928e+004,1.944928e+004
6.897730e+002,2.453510e+004,2.453510e+004,2.453510e+004,,7.969070e+002,1.962808e+004,1.962808e+004,1.962808e+004
6.898730e+002,2.437100e+004,2.437100e+004,2.437100e+004,,7.968070e+002,1.949680e+004,1.949680e+004,1.949680e+004
6.899730e+002,2.450510e+004,2.450510e+004,2.450510e+004,,7.967070e+002,1.960408e+004,1.960408e+004,1.960408e+004
6.900730e+002,2.450620e+004,2.450620e+004,2.450620e+004,,7.966070e+002,1.960496e+004,1.960496e+004,1.960496e+004
6.901730e+002,2.471070e+004,2.471070e+004,2.471070e+004,,7.965070e+002,1.976856e+004,1.976856e+004,1.976856e+004
6.902730e+002,2.464150e+004,2.464150e+004,2.464150e+004,,7.964070e+002,1.971320e+004,1.971320e+004,1.971320e+004
6.903730e+002,2.476610e+004,2.476610e+004,2.476610e+004,,7.963070e+002,1.981288e+004,1.981288e+004,1.981288e+004
6.904730e+002,2.515410e+004,2.515410e+004,2.515410e+004,,7.962070e+002,2.012328e+004,2.012328e+004,2.012328e+004
6.905730e+002,2.481340e+004,2.481340e+004,2.481340e+004,,7.961070e+002,1.985072e+004,1.985072e+004,1.985072e+004
6.906730e+002,2.475330e+004,2.475330e+004,2.475330e+004,,7.960070e+002,1.980264e+004,1.980264e+004,1.980264e+004
6.907730e+002,2.498730e+004,2.498730e+004,2.498730e+004,,7.959070e+002,1.998984e+004,1.998984e+004,1.998984e+004
6.908730e+002,2.491710e+004,2.491710e+004,2.491710e+004,,7.958070e+002,1.993368e+004,1.993368e+004,1.993368e+004
6.909730e+002,2.456230e+004,2.456230e+004,2.456230e+004,,7.957070e+002,1.964984e+004,1.964984e+004,1.964984e+004
6.910730e+002,2.466840e+004,2.466840e+004,2.466840e+004,,7.956070e+002,1.973472e+004,1.973472e+004,1.973472e+004
6.911730e+002,2.473850e+004,2.473850e+004,2.473850e+004,,7.955070e+002,1.979080e+004,1.979080e+004,1.979080e+004
6.912730e+002,2.412530e+004,2.412530e+004,2.412530e+004,,7.954070e+002,1.930024e+004,1.930024e+004,1.930024e+004
6.913730e+002,2.393130e+004,2.393130e+004,2.393130e+004,,7.953070e+002,1.914504e+004,1.914504e+004,1.914504e+004
6.914730e+002,2.386170e+004,2.386170e+004,2.386170e+004,,7.952070e+002,1.908936e+004,1.908936e+004,1.908936e+004
6.915730e+002,2.364070e+004,2.364070e+004,2.364070e+004,,7.951070e+002,1.891256e+004,1.891256e+004,1.891256e+004
6.916730e+002,2.334620e+004,2.334620e+004,2.334620e+004,,7.950070e+002,1.867696e+004,1.867696e+004,1.867696e+004
6.917730e+002,2.302360e+004,2.302360e+004,2.302360e+004,,7.949070e+002,1.841888e+004,1.841888e+004,1.841888e+004
6.918730e+002,2.291020e+004,2.291020e+004,2.291020e+004,,7.948070e+002,1.832816e+004,1.832816e+004,1.832816e+004
6.919730e+002,2.275720e+004,2.275720e+004,2.275720e+004,,7.947070e+002,1.820576e+004,1.820576e+004,1.820576e+004
6.920730e+002,2.257920e+004,2.257920e+004,2.257920e+004,,7.946070e+002,1.806336e+004,1.806336e+004,1.806336e+004
6.921730e+002,2.201150e+004,2.201150e+004,2.201150e+004,,7.945070e+002,1.760920e+004,1.760920e+004,1.760920e+004
6.922730e+002,2.192740e+004,2.192740e+004,2.192740e+004,,7.944070e+002,1.754192e+004,1.754192e+004,1.754192e+004
6.923730e+002,2.198000e+004,2.198000e+004,2.198000e+004,,7.943070e+002,1.758400e+004,1.758400e+004,1.758400e+004
6.924730e+002,2.166900e+004,2.166900e+004,2.166900e+004,,7.942070e+002,1.733520e+004,1.733520e+004,1.733520e+004
6.925730e+002,2.131190e+004,2.131190e+004,2.131190e+004,,7.941070e+002,1.704952e+004,1.704952e+004,1.704952e+004
6.926730e+002,2.091910e+004,2.091910e+004,2.091910e+004,,7.940070e+002,1.673528e+004,1.673528e+004,1.673528e+004
6.927730e+002,2.078400e+004,2.078400e+004,2.078400e+004,,7.939070e+002,1.662720e+004,1.662720e+004,1.662720e+004
6.928730e+002,2.097680e+004,2.097680e+004,2.097680e+004,,7.938070e+002,1.678144e+004,1.678144e+004,1.678144e+004
6.929730e+002,2.071350e+004,2.071350e+004,2.071350e+004,,7.937070e+002,1.657080e+004,1.657080e+004,1.657080e+004
6.930730e+002,2.042760e+004,2.042760e+004,2.042760e+004,,7.936070e+002,1.634208e+004,1.634208e+004,1.634208e+004
6.931730e+002,2.026940e+004,2.026940e+004,2.026940e+004,,7.935070e+002,1.621552e+004,1.621552e+004,1.621552e+004
6.932730e+002,2.002520e+004,2.002520e+004,2.002520e+004,,7.934070e+002,1.602016e+004,1.602016e+004,1.602016e+004
6.933730e+002,2.010780e+004,2.010780e+004,2.010780e+004,,7.933070e+002,1.608624e+004,1.608624e+004,1.608624e+004
6.934730e+002,1.980710e+004,1.980710e+004,1.980710e+004,,7.932070e+002,1.584568e+004,1.584568e+004,1.584568e+004
6.935730e+002,1.975330e+004,1.975330e+004,1.975330e+004,,7.931070e+002,1.580264e+004,1.580264e+004,1.580264e+004
6.936730e+002,1.948700e+004,1.948700e+004,1.948700e+004,,7.930070e+002,1.558960e+004,1.558960e+004,1.558960e+004
6.937730e+002,1.981470e+004,1.981470e+004,1.981470e+004,,7.929070e+002,1.585176e+004,1.585176e+004,1.585176e+004
6.938730e+002,1.962410e+004,1.962410e+004,1.962410e+004,,7.928070e+002,1.569928e+004,1.569928e+004,1.569928e+004
6.939730e+002,1.956020e+004,1.956020e+004,1.956020e+004,,7.927070e+002,1.564816e+004,1.564816e+004,1.564816e+004
6.940730e+002,1.931770e+004,1.931770e+004,1.931770e+004,,7.926070e+002,1.545416e+004,1.545416e+004,1.545416e+004
6.941730e+002,1.933970e+004,1.933970e+004,1.933970e+004,,7.925070e+002,1.547176e+004,1.547176e+004,1.547176e+004
6.942730e+002,1.942620e+004,1.942620e+004,1.942620e+004,,7.924070e+002,1.554096e+004,1.554096e+004,1.554096e+004
6.943730e+002,1.920960e+004,1.947211e+004,1.947211e+004,,7.923070e+002,1.536768e+004,1.557769e+004,1.557769e+004
6.944730e+002,1.948000e+004,1.947205e+004,1.947205e+004,,7.922070e+002,1.558400e+004,1.557764e+004,1.557764e+004
6.945730e+002,1.961120e+004,1.947110e+004,1.947110e+004,,7.921070e+002,1.568896e+004,1.557688e+004,1.557688e+004
6.946730e+002,1.956200e+004,1.947047e+004,1.947047e+004,,7.920070e+002,1.564960e+004,1.557638e+004,1.557638e+004
6.947730e+002,1.966020e+004,1.946917e+004,1.946917e+004,,7.919070e+002,1.572816e+004,1.557533e+004,1.557533e+004
6.948730e+002,1.942200e+004,1.946885e+004,1.946885e+004,,7.918070e+002,1.553760e+004,1.557508e+004,1.557508e+004
6.949730e+002,1.947230e+004,1.946883e+004,1.946883e+004,,7.917070e+002,1.557784e+004,1.557506e+004,1.557506e+004
6.950730e+002,1.953660e+004,1.946836e+004,1.946836e+004,,7.916070e+002,1.562928e+004,1.557469e+004,1.557469e+004
6.951730e+002,1.934930e+004,1.946755e+004,1.946755e+004,,7.915070e+002,1.547944e+004,1.557404e+004,1.557404e+004
6.952730e+002,1.948990e+004,1.946740e+004,1.946740e+004,,7.914070e+002,1.559192e+004,1.557392e+004,1.557392e+004
6.953730e+002,1.940290e+004,1.946696e+004,1.946696e+004,,7.913070e+002,1.552232e+004,1.557357e+004,1.557357e+004
6.954730e+002,1.941920e+004,1.946664e+004,1.946664e+004,,7.912070e+002,1.553536e+004,1.557331e+004,1.557331e+004
6.955730e+002,1.950490e+004,1.946637e+004,1.946637e+004,,7.911070e+002,1.560392e+004,1.557310e+004,1.557310e+004
6.956730e+002,1.962160e+004,1.946531e+004,1.946531e+004,,7.910070e+002,1.569728e+004,1.557225e+004,1.557225e+004
6.957730e+002,1.936340e+004,1.946462e+004,1.946462e+004,,7.909070e+002,1.549072e+004,1.557169e+004,1.557169e+004
6.958730e+002,1.967600e+004,1.946316e+004,1.946316e+004,,7.908070e+002,1.574080e+004,1.557053e+004,1.557053e+004
6.959730e+002,1.999380e+004,1.945952e+004,1.945952e+004,,7.907070e+002,1.599504e+004,1.556761e+004,1.556761e+004
6.960730e+002,2.010700e+004,1.945507e+004,1.945507e+004,,7.906070e+002,1.608560e+004,1.556405e+004,1.556405e+004
6.961730e+002,1.992830e+004,1.945181e+004,1.945181e+004,,7.905070e+002,1.594264e+004,1.556145e+004,1.556145e+004
6.962730e+002,1.975850e+004,1.944971e+004,1.944971e+004,,7.904070e+002,1.580680e+004,1.555976e+004,1.555976e+004
6.963730e+002,2.016190e+004,1.944481e+004,1.944481e+004,,7.903070e+002,1.612952e+004,1.555585e+004,1.555585e+004
6.964730e+002,2.002870e+004,1.944080e+004,1.944080e+004,,7.902070e+002,1.602296e+004,1.555264e+004,1.555264e+004
6.965730e+002,2.015230e+004,1.943591e+004,1.943591e+004,,7.901070e+002,1.612184e+004,1.554873e+004,1.554873e+004
6.966730e+002,2.041830e+004,1.942916e+004,1.942916e+004,,7.900070e+002,1.633464e+004,1.554332e+004,1.554332e+004
6.967730e+002,2.015630e+004,1.942416e+004,1.942416e+004,,7.899070e+002,1.612504e+004,1.553933e+004,1.553933e+004
6.968730e+002,2.035160e+004,1.941778e+004,1.941778e+004,,7.898070e+002,1.628128e+004,1.553423e+004,1.553423e+004
6.969730e+002,2.039500e+004,1.941107e+004,1.941107e+004,,7.897070e+002,1.631600e+004,1.552885e+004,1.552885e+004
6.970730e+002,2.052610e+004,1.940340e+004,1.940340e+004,,7.896070e+002,1.642088e+004,1.552272e+004,1.552272e+004
6.971730e+002,2.063380e+004,1.939495e+004,1.939495e+004,,7.895070e+002,1.650704e+004,1.551596e+004,1.551596e+004
6.972730e+002,2.054190e+004,1.938706e+004,1.938706e+004,,7.894070e+002,1.643352e+004,1.550965e+004,1.550965e+004
6.973730e+002,2.068310e+004,1.937816e+004,1.937816e+004,,7.893070e+002,1.654648e+004,1.550252e+004,1.550252e+004
6.974730e+002,2.071060e+004,1.936900e+004,1.936900e+004,,7.892070e+002,1.656848e+004,1.549520e+004,1.549520e+004
6.975730e+002,2.083520e+004,1.935892e+004,1.935892e+004,,7.891070e+002,1.666816e+004,1.548714e+004,1.548714e+004
6.976730e+002,2.069350e+004,1.934975e+004,1.934975e+004,,7.890070e+002,1.655480e+004,1.547980e+004,1.547980e+004
6.977730e+002,2.071280e+004,1.934038e+004,1.934038e+004,,7.889070e+002,1.657024e+004,1.547230e+004,1.547230e+004
6.978730e+002,2.086470e+004,1.932990e+004,1.932990e+004,,7.888070e+002,1.669176e+004,1.546392e+004,1.546392e+004
6.979730e+002,2.131440e+004,1.931626e+004,1.931626e+004,,7.887070e+002,1.705152e+004,1.545301e+004,1.545301e+004
6.980730e+002,2.111470e+004,1.930390e+004,1.930390e+004,,7.886070e+002,1.689176e+004,1.544312e+004,1.544312e+004
6.981730e+002,2.119870e+004,1.929088e+004,1.929088e+004,,7.885070e+002,1.695896e+004,1.543270e+004,1.543270e+004
6.982730e+002,2.159150e+004,1.927507e+004,1.927507e+004,,7.884070e+002,1.727320e+004,1.542005e+004,1.542005e+004
6.983730e+002,2.162520e+004,1.925891e+004,1.925891e+004,,7.883070e+002,1.730016e+004,1.540713e+004,1.540713e+004
6.984730e+002,2.149080e+004,1.924357e+004,1.924357e+004,,7.882070e+002,1.719264e+004,1.539486e+004,1.539486e+004
6.985730e+002,2.147320e+004,1.922825e+004,1.922825e+004,,7.881070e+002,1.717856e+004,1.538260e+004,1.538260e+004
6.986730e+002,2.173230e+004,1.921104e+004,1.921104e+004,,7.880070e+002,1.738584e+004,1.536883e+004,1.536883e+004
6.987730e+002,2.184110e+004,1.919296e+004,1.919296e+004,,7.879070e+002,1.747288e+004,1.535437e+004,1.535437e+004
6.988730e+002,2.210540e+004,1.917294e+004,1.917294e+004,,7.878070e+002,1.768432e+004,1.533835e+004,1.533835e+004
6.989730e+002,2.203730e+004,1.915326e+004,1.915326e+004,,7.877070e+002,1.762984e+004,1.532261e+004,1.532261e+004
6.990730e+002,2.228010e+004,1.913177e+004,1.913177e+004,,7.876070e+002,1.782408e+004,1.530541e+004,1.530541e+004
6.991730e+002,2.225340e+004,1.911031e+004,1.911031e+004,,7.875070e+002,1.780272e+004,1.528825e+004,1.528825e+004
6.992730e+002,2.233630e+004,1.908814e+004,1.908814e+004,,7.874070e+002,1.786904e+004,1.527051e+004,1.527051e+004
6.993730e+002,2.225530e+004,1.906637e+004,1.906637e+004,,7.873070e+002,1.780424e+004,1.525310e+004,1.525310e+004
6.994730e+002,2.254790e+004,1.904244e+004,1.904244e+004,,7.872070e+002,1.803832e+004,1.523395e+004,1.523395e+004
6.995730e+002,2.246360e+004,1.901893e+004,1.901893e+004,,7.871070e+002,1.797088e+004,1.521514e+004,1.521514e+004
6.996730e+002,2.287650e+004,1.899241e+004,1.899241e+004,,7.870070e+002,1.830120e+004,1.519393e+004,1.519393e+004
6.997730e+002,2.289640e+004,1.896558e+004,1.896558e+004,,7.869070e+002,1.831712e+004,1.517246e+004,1.517246e+004
6.998730e+002,2.308800e+004,1.893725e+004,1.893725e+004,,7.868070e+002,1.847040e+004,1.514980e+004,1.514980e+004
6.999730e+002,2.319090e+004,1.890801e+004,1.890801e+004,,7.867070e+002,1.855272e+004,1.512641e+004,1.512641e+004
7.000730e+002,2.283880e+004,1.888099e+004,1.888099e+004,,7.866070e+002,1.827104e+004,1.510479e+004,1.510479e+004
7.001730e+002,2.297060e+004,1.885289e+004,1.885289e+004,,7.865070e+002,1.837648e+004,1.508231e+004,1.508231e+004
7.002730e+002,2.312270e+004,1.882354e+004,1.882354e+004,,7.864070e+002,1.849816e+004,1.505883e+004,1.505883e+004
7.003730e+002,2.327610e+004,1.879294e+004,1.879294e+004,,7.863070e+002,1.862088e+004,1.503435e+004,1.503435e+004
7.004730e+002,2.319210e+004,1.876270e+004,1.876270e+004,,7.862070e+002,1.855368e+004,1.501016e+004,1.501016e+004
7.005730e+002,2.335810e+004,1.873111e+004,1.873111e+004,,7.861070e+002,1.868648e+004,1.498489e+004,1.498489e+004
7.006730e+002,2.329110e+004,1.869977e+004,1.869977e+004,,7.860070e+002,1.863288e+004,1.495982e+004,1.495982e+004
7.007730e+002,2.332200e+004,1.866800e+004,1.866800e+004,,7.859070e+002,1.865760e+004,1.493440e+004,1.493440e+004
7.008730e+002,2.358940e+004,1.863418e+004,1.863418e+004,,7.858070e+002,1.887152e+004,1.490734e+004,1.490734e+004
7.009730e+002,2.351110e+004,1.860066e+004,1.860066e+004,,7.857070e+002,1.880888e+004,1.488053e+004,1.488053e+004
7.010730e+002,2.342170e+004,1.856752e+004,1.856752e+004,,7.856070e+002,1.873736e+004,1.485402e+004,1.485402e+004
7.011730e+002,2.339140e+004,1.853437e+004,1.853437e+004,,7.855070e+002,1.871312e+004,1.482750e+004,1.482750e+004
7.012730e+002,2.334960e+004,1.850127e+004,1.850127e+004,,7.854070e+002,1.867968e+004,1.480102e+004,1.480102e+004
7.013730e+002,2.330070e+004,1.846829e+004,1.846829e+004,,7.853070e+002,1.864056e+004,1.477463e+004,1.477463e+004
7.014730e+002,2.346190e+004,1.843396e+004,1.843396e+004,,7.852070e+002,1.876952e+004,1.474717e+004,1.474717e+004
7.015730e+002,2.326140e+004,1.840079e+004,1.840079e+004,,7.851070e+002,1.860912e+004,1.472063e+004,1.472063e+004
7.016730e+002,2.300130e+004,1.836917e+004,1.836917e+004,,7.850070e+002,1.840104e+004,1.469533e+004,1.469533e+004
7.017730e+002,2.321840e+004,1.833584e+004,1.833584e+004,,7.849070e+002,1.857472e+004,1.466867e+004,1.466867e+004
7.018730e+002,2.280580e+004,1.830511e+004,1.830511e+004,,7.848070e+002,1.824464e+004,1.464409e+004,1.464409e+004
7.019730e+002,2.306400e+004,1.827241e+004,1.827241e+004,,7.847070e+002,1.845120e+004,1.461792e+004,1.461792e+004
7.020730e+002,2.292070e+004,1.824046e+004,1.824046e+004,,7.846070e+002,1.833656e+004,1.459237e+004,1.459237e+004
7.021730e+002,2.280170e+004,1.820911e+004,1.820911e+004,,7.845070e+002,1.824136e+004,1.456729e+004,1.456729e+004
7.022730e+002,2.283690e+004,1.817730e+004,1.817730e+004,,7.844070e+002,1.826952e+004,1.454184e+004,1.454184e+004
7.023730e+002,2.268270e+004,1.814633e+004,1.814633e+004,,7.843070e+002,1.814616e+004,1.451707e+004,1.451707e+004
7.024730e+002,2.285120e+004,1.811400e+004,1.811400e+004,,7.842070e+002,1.828096e+004,1.449120e+004,1.449120e+004
7.025730e+002,2.265430e+004,1.808279e+004,1.808279e+004,,7.841070e+002,1.812344e+004,1.446623e+004,1.446623e+004
7.026730e+002,2.287990e+004,1.804982e+004,1.804982e+004,,7.840070e+002,1.830392e+004,1.443986e+004,1.443986e+004
7.027730e+002,2.276310e+004,1.801743e+004,1.801743e+004,,7.839070e+002,1.821048e+004,1.441394e+004,1.441394e+004
7.028730e+002,2.278420e+004,1.798466e+004,1.798466e+004,,7.838070e+002,1.822736e+004,1.438773e+004,1.438773e+004
7.029730e+002,2.288220e+004,1.795100e+004,1.795100e+004,,7.837070e+002,1.830576e+004,1.436080e+004,1.436080e+004
7.030730e+002,2.293420e+004,1.791675e+004,1.791675e+004,,7.836070e+002,1.834736e+004,1.433340e+004,1.433340e+004
7.031730e+002,2.326670e+004,1.787998e+004,1.787998e+004,,7.835070e+002,1.861336e+004,1.430399e+004,1.430399e+004
7.032730e+002,2.318010e+004,1.784355e+004,1.784355e+004,,7.834070e+002,1.854408e+004,1.427484e+004,1.427484e+004
7.033730e+002,2.325510e+004,1.780636e+004,1.780636e+004,,7.833070e+002,1.860408e+004,1.424509e+004,1.424509e+004
7.034730e+002,2.330930e+004,1.776854e+004,1.776854e+004,,7.832070e+002,1.864744e+004,1.421483e+004,1.421483e+004
7.035730e+002,2.361250e+004,1.772837e+004,1.772837e+004,,7.831070e+002,1.889000e+004,1.418270e+004,1.418270e+004
7.036730e+002,2.367920e+004,1.768747e+004,1.768747e+004,,7.830070e+002,1.894336e+004,1.414998e+004,1.414998e+004
7.037730e+002,2.397580e+004,1.764425e+004,1.764425e+004,,7.829070e+002,1.918064e+004,1.411540e+004,1.411540e+004
7.038730e+002,2.430920e+004,1.759844e+004,1.759844e+004,,7.828070e+002,1.944736e+004,1.407875e+004,1.407875e+004
7.039730e+002,2.443540e+004,1.755145e+004,1.755145e+004,,7.827070e+002,1.954832e+004,1.404116e+004,1.404116e+004
7.040730e+002,2.461150e+004,1.750293e+004,1.750293e+004,,7.826070e+002,1.968920e+004,1.400234e+004,1.400234e+004
7.041730e+002,2.473940e+004,1.745319e+004,1.745319e+004,,7.825070e+002,1.979152e+004,1.396255e+004,1.396255e+004
7.042730e+002,2.491650e+004,1.740189e+004,1.740189e+004,,7.824070e+002,1.993320e+004,1.392151e+004,1.392151e+004
7.043730e+002,2.489220e+004,1.735041e+004,1.735041e+004,,7.823070e+002,1.991376e+004,1.388033e+004,1.388033e+004
7.044730e+002,2.562560e+004,1.729354e+004,1.729354e+004,,7.822070e+002,2.050048e+004,1.383483e+004,1.383483e+004
7.045730e+002,2.556330e+004,1.723670e+004,1.723670e+004,,7.821070e+002,2.045064e+004,1.378936e+004,1.378936e+004
7.046730e+002,2.574530e+004,1.717822e+004,1.717822e+004,,7.820070e+002,2.059624e+004,1.374257e+004,1.374257e+004
7.047730e+002,2.619140e+004,1.711627e+004,1.711627e+004,,7.819070e+002,2.095312e+004,1.369301e+004,1.369301e+004
7.048730e+002,2.637050e+004,1.705266e+004,1.705266e+004,,7.818070e+002,2.109640e+004,1.364213e+004,1.364213e+004
7.049730e+002,2.656630e+004,1.698727e+004,1.698727e+004,,7.817070e+002,2.125304e+004,1.358982e+004,1.358982e+004
7.050730e+002,2.690420e+004,1.691911e+004,1.691911e+004,,7.816070e+002,2.152336e+004,1.353529e+004,1.353529e+004
7.051730e+002,2.735590e+004,1.684738e+004,1.684738e+004,,7.815070e+002,2.188472e+004,1.347791e+004,1.347791e+004
7.052730e+002,2.699070e+004,1.677767e+004,1.677767e+004,,7.814070e+002,2.159256e+004,1.342213e+004,1.342213e+004
7.053730e+002,2.733190e+004,1.670513e+004,1.670513e+004,,7.813070e+002,2.186552e+004,1.336410e+004,1.336410e+004
7.054730e+002,2.762840e+004,1.663005e+004,1.663005e+004,,7.812070e+002,2.210272e+004,1.330404e+004,1.330404e+004
7.055730e+002,2.780840e+004,1.655322e+004,1.655322e+004,,7.811070e+002,2.224672e+004,1.324258e+004,1.324258e+004
7.056730e+002,2.819940e+004,1.647317e+004,1.647317e+004,,7.810070e+002,2.255952e+004,1.317854e+004,1.317854e+004
7.057730e+002,2.835370e+004,1.639152e+004,1.639152e+004,,7.809070e+002,2.268296e+004,1.311321e+004,1.311321e+004
7.058730e+002,2.835560e+004,1.630929e+004,1.630929e+004,,7.808070e+002,2.268448e+004,1.304743e+004,1.304743e+004
7.059730e+002,2.852090e+004,1.622536e+004,1.622536e+004,,7.807070e+002,2.281672e+004,1.298028e+004,1.298028e+004
7.060730e+002,2.873800e+004,1.613935e+004,1.613935e+004,,7.806070e+002,2.299040e+004,1.291148e+004,1.291148e+004
7.061730e+002,2.891200e+004,1.605157e+004,1.605157e+004,,7.805070e+002,2.312960e+004,1.284125e+004,1.284125e+004
7.062730e+002,2.917180e+004,1.596139e+004,1.596139e+004,,7.804070e+002,2.333744e+004,1.276911e+004,1.276911e+004
7.063730e+002,2.850460e+004,1.587518e+004,1.587518e+004,,7.803070e+002,2.280368e+004,1.270014e+004,1.270014e+004
7.064730e+002,2.874370e+004,1.578673e+004,1.578673e+004,,7.802070e+002,2.299496e+004,1.262939e+004,1.262939e+004
7.065730e+002,2.852110e+004,1.569921e+004,1.569921e+004,,7.801070e+002,2.281688e+004,1.255937e+004,1.255937e+004
7.066730e+002,2.879250e+004,1.560922e+004,1.560922e+004,,7.800070e+002,2.303400e+004,1.248737e+004,1.248737e+004
7.067730e+002,2.812620e+004,1.552319e+004,1.552319e+004,,7.799070e+002,2.250096e+004,1.241855e+004,1.241855e+004
7.068730e+002,2.784230e+004,1.543852e+004,1.543852e+004,,7.798070e+002,2.227384e+004,1.235081e+004,1.235081e+004
7.069730e+002,2.701060e+004,1.535898e+004,1.535898e+004,,7.797070e+002,2.160848e+004,1.228718e+004,1.228718e+004
7.070730e+002,2.679570e+004,1.528037e+004,1.528037e+004,,7.796070e+002,2.143656e+004,1.222430e+004,1.222430e+004
7.071730e+002,2.629310e+004,1.520468e+004,1.520468e+004,,7.795070e+002,2.103448e+004,1.216375e+004,1.216375e+004
7.072730e+002,2.578710e+004,1.513195e+004,1.513195e+004,,7.794070e+002,2.062968e+004,1.210556e+004,1.210556e+004
7.073730e+002,2.532200e+004,1.506191e+004,1.506191e+004,,7.793070e+002,2.025760e+004,1.204953e+004,1.204953e+004
7.074730e+002,2.456600e+004,1.499659e+004,1.499659e+004,,7.792070e+002,1.965280e+004,1.199727e+004,1.199727e+004
7.075730e+002,2.430630e+004,1.493260e+004,1.493260e+004,,7.791070e+002,1.944504e+004,1.194608e+004,1.194608e+004
7.076730e+002,2.361680e+004,1.487291e+004,1.487291e+004,,7.790070e+002,1.889344e+004,1.189833e+004,1.189833e+004
7.077730e+002,2.294550e+004,1.481743e+004,1.481743e+004,,7.789070e+002,1.835640e+004,1.185394e+004,1.185394e+004
7.078730e+002,2.232440e+004,1.476583e+004,1.476583e+004,,7.788070e+002,1.785952e+004,1.181267e+004,1.181267e+004
7.079730e+002,2.184430e+004,1.471718e+004,1.471718e+004,,7.787070e+002,1.747544e+004,1.177375e+004,1.177375e+004
7.080730e+002,2.148030e+004,1.467070e+004,1.467070e+004,,7.786070e+002,1.718424e+004,1.173656e+004,1.173656e+004
7.081730e+002,2.102040e+004,1.462706e+004,1.462706e+004,,7.785070e+002,1.681632e+004,1.170165e+004,1.170165e+004
7.082730e+002,2.076230e+004,1.458489e+004,1.458489e+004,,7.784070e+002,1.660984e+004,1.166791e+004,1.166791e+004
7.083730e+002,2.005840e+004,1.454727e+004,1.454727e+004,,7.783070e+002,1.604672e+004,1.163782e+004,1.163782e+004
7.084730e+002,1.975060e+004,1.451151e+004,1.451151e+004,,7.782070e+002,1.580048e+004,1.160921e+004,1.160921e+004
7.085730e+002,1.948870e+004,1.447730e+004,1.447730e+004,,7.781070e+002,1.559096e+004,1.158184e+004,1.158184e+004
7.086730e+002,1.903860e+004,1.444595e+004,1.444595e+004,,7.780070e+002,1.523088e+004,1.155676e+004,1.155676e+004
7.087730e+002,1.840900e+004,1.441871e+004,1.441871e+004,,7.779070e+002,1.472720e+004,1.153497e+004,1.153497e+004
7.088730e+002,1.829140e+004,1.439209e+004,1.439209e+004,,7.778070e+002,1.463312e+004,1.151367e+004,1.151367e+004
7.089730e+002,1.771800e+004,1.436923e+004,1.436923e+004,,7.777070e+002,1.417440e+004,1.149539e+004,1.149539e+004
7.090730e+002,1.763850e+004,1.434676e+004,1.434676e+004,,7.776070e+002,1.411080e+004,1.147741e+004,1.147741e+004
7.091730e+002,1.742360e+004,1.432562e+004,1.432562e+004,,7.775070e+002,1.393888e+004,1.146049e+004,1.146049e+004
7.092730e+002,1.736930e+004,1.430470e+004,1.430470e+004,,7.774070e+002,1.389544e+004,1.144376e+004,1.144376e+004
7.093730e+002,1.695460e+004,1.428648e+004,1.428648e+004,,7.773070e+002,1.356368e+004,1.142919e+004,1.142919e+004
7.094730e+002,1.703410e+004,1.426760e+004,1.426760e+004,,7.772070e+002,1.362728e+004,1.141408e+004,1.141408e+004
7.095730e+002,1.673100e+004,1.425067e+004,1.425067e+004,,7.771070e+002,1.338480e+004,1.140053e+004,1.140053e+004
7.096730e+002,1.695200e+004,1.423210e+004,1.423210e+004,,7.770070e+002,1.356160e+004,1.138568e+004,1.138568e+004
7.097730e+002,1.692990e+004,1.421356e+004,1.421356e+004,,7.769070e+002,1.354392e+004,1.137085e+004,1.137085e+004
7.098730e+002,1.664660e+004,1.419684e+004,1.419684e+004,,7.768070e+002,1.331728e+004,1.135747e+004,1.135747e+004
7.099730e+002,1.666820e+004,1.417985e+004,1.417985e+004,,7.767070e+002,1.333456e+004,1.134388e+004,1.134388e+004
7.100730e+002,1.641020e+004,1.416452e+004,1.416452e+004,,7.766070e+002,1.312816e+004,1.133162e+004,1.133162e+004
7.101730e+002,1.626480e+004,1.415008e+004,1.415008e+004,,7.765070e+002,1.301184e+004,1.132007e+004,1.132007e+004
7.102730e+002,1.633670e+004,1.413506e+004,1.413506e+004,,7.764070e+002,1.306936e+004,1.130804e+004,1.130804e+004
7.103730e+002,1.625300e+004,1.412050e+004,1.412050e+004,,7.763070e+002,1.300240e+004,1.129640e+004,1.129640e+004
7.104730e+002,1.604680e+004,1.410726e+004,1.410726e+004,,7.762070e+002,1.283744e+004,1.128581e+004,1.128581e+004
7.105730e+002,1.607620e+004,1.409373e+004,1.409373e+004,,7.761070e+002,1.286096e+004,1.127498e+004,1.127498e+004
7.106730e+002,1.603890e+004,1.408036e+004,1.408036e+004,,7.760070e+002,1.283112e+004,1.126429e+004,1.126429e+004
7.107730e+002,1.599980e+004,1.406716e+004,1.406716e+004,,7.759070e+002,1.279984e+004,1.125373e+004,1.125373e+004
7.108730e+002,1.621310e+004,1.405242e+004,1.405242e+004,,7.758070e+002,1.297048e+004,1.124193e+004,1.124193e+004
7.109730e+002,1.586680e+004,1.403994e+004,1.403994e+004,,7.757070e+002,1.269344e+004,1.123196e+004,1.123196e+004
7.110730e+002,1.598710e+004,1.402656e+004,1.402656e+004,,7.756070e+002,1.278968e+004,1.122125e+004,1.122125e+004
7.111730e+002,1.597290e+004,1.401318e+004,1.401318e+004,,7.755070e+002,1.277832e+004,1.121055e+004,1.121055e+004
7.112730e+002,1.578510e+004,1.400101e+004,1.400101e+004,,7.754070e+002,1.262808e+004,1.120080e+004,1.120080e+004
7.113730e+002,1.598940e+004,1.398734e+004,1.398734e+004,,7.753070e+002,1.279152e+004,1.118987e+004,1.118987e+004
7.114730e+002,1.592050e+004,1.397405e+004,1.397405e+004,,7.752070e+002,1.273640e+004,1.117924e+004,1.117924e+004
7.115730e+002,1.584750e+004,1.396118e+004,1.396118e+004,,7.751070e+002,1.267800e+004,1.116894e+004,1.116894e+004
7.116730e+002,1.598630e+004,1.394726e+004,1.394726e+004,,7.750070e+002,1.278904e+004,1.115781e+004,1.115781e+004
7.117730e+002,1.573080e+004,1.393500e+004,1.393500e+004,,7.749070e+002,1.258464e+004,1.114800e+004,1.114800e+004
7.118730e+002,1.586690e+004,1.392172e+004,1.392172e+004,,7.748070e+002,1.269352e+004,1.113738e+004,1.113738e+004
7.119730e+002,1.575020e+004,1.390915e+004,1.390915e+004,,7.747070e+002,1.260016e+004,1.112732e+004,1.112732e+004
7.120730e+002,1.593980e+004,1.389520e+004,1.389520e+004,,7.746070e+002,1.275184e+004,1.111616e+004,1.111616e+004
7.121730e+002,1.590590e+004,1.388138e+004,1.388138e+004,,7.745070e+002,1.272472e+004,1.110510e+004,1.110510e+004
7.122730e+002,1.557490e+004,1.386974e+004,1.386974e+004,,7.744070e+002,1.245992e+004,1.109579e+004,1.109579e+004
7.123730e+002,1.592280e+004,1.385563e+004,1.385563e+004,,7.743070e+002,1.273824e+004,1.108450e+004,1.108450e+004
7.124730e+002,1.557260e+004,1.384383e+004,1.384383e+004,,7.742070e+002,1.245808e+004,1.107506e+004,1.107506e+004
7.125730e+002,1.555520e+004,1.383206e+004,1.383206e+004,,7.741070e+002,1.244416e+004,1.106565e+004,1.106565e+004
7.126730e+002,1.556720e+004,1.382014e+004,1.382014e+004,,7.740070e+002,1.245376e+004,1.105611e+004,1.105611e+004
7.127730e+002,1.561110e+004,1.380783e+004,1.380783e+004,,7.739070e+002,1.248888e+004,1.104626e+004,1.104626e+004
7.128730e+002,1.583060e+004,1.379393e+004,1.379393e+004,,7.738070e+002,1.266448e+004,1.103514e+004,1.103514e+004
7.129730e+002,1.557780e+004,1.378166e+004,1.378166e+004,,7.737070e+002,1.246224e+004,1.102533e+004,1.102533e+004
7.130730e+002,1.554760e+004,1.376953e+004,1.376953e+004,,7.736070e+002,1.243808e+004,1.101562e+004,1.101562e+004
7.131730e+002,1.556410e+004,1.375719e+004,1.375719e+004,,7.735070e+002,1.245128e+004,1.100575e+004,1.100575e+004
7.132730e+002,1.553570e+004,1.374497e+004,1.374497e+004,,7.734070e+002,1.242856e+004,1.099598e+004,1.099598e+004
7.133730e+002,1.543110e+004,1.373338e+004,1.373338e+004,,7.733070e+002,1.234488e+004,1.098670e+004,1.098670e+004
7.134730e+002,1.550050e+004,1.372123e+004,1.372123e+004,,7.732070e+002,1.240040e+004,1.097699e+004,1.097699e+004
7.135730e+002,1.545470e+004,1.370932e+004,1.370932e+004,,7.731070e+002,1.236376e+004,1.096746e+004,1.096746e+004
7.136730e+002,1.543300e+004,1.369747e+004,1.369747e+004,,7.730070e+002,1.234640e+004,1.095798e+004,1.095798e+004
7.137730e+002,1.530840e+004,1.368640e+004,1.368640e+004,,7.729070e+002,1.224672e+004,1.094912e+004,1.094912e+004
7.138730e+002,1.543130e+004,1.367441e+004,1.367441e+004,,7.728070e+002,1.234504e+004,1.093953e+004,1.093953e+004
7.139730e+002,1.536490e+004,1.366279e+004,1.366279e+004,,7.727070e+002,1.229192e+004,1.093023e+004,1.093023e+004
7.140730e+002,1.538540e+004,1.365095e+004,1.365095e+004,,7.726070e+002,1.230832e+004,1.092076e+004,1.092076e+004
7.141730e+002,1.520720e+004,1.364025e+004,1.364025e+004,,7.725070e+002,1.216576e+004,1.091220e+004,1.091220e+004
7.142730e+002,1.532580e+004,1.362867e+004,1.362867e+004,,7.724070e+002,1.226064e+004,1.090293e+004,1.090293e+004
7.143730e+002,1.533640e+004,1.361693e+004,1.361693e+004,,7.723070e+002,1.226912e+004,1.089354e+004,1.089354e+004
7.144730e+002,1.537730e+004,1.360483e+004,1.360483e+004,,7.722070e+002,1.230184e+004,1.088387e+004,1.088387e+004
7.145730e+002,1.534850e+004,1.359285e+004,1.359285e+004,,7.721070e+002,1.227880e+004,1.087428e+004,1.087428e+004
7.146730e+002,1.509190e+004,1.358254e+004,1.358254e+004,,7.720070e+002,1.207352e+004,1.086604e+004,1.086604e+004
7.147730e+002,1.532740e+004,1.357055e+004,1.357055e+004,,7.719070e+002,1.226192e+004,1.085644e+004,1.085644e+004
7.148730e+002,1.521880e+004,1.355922e+004,1.355922e+004,,7.718070e+002,1.217504e+004,1.084738e+004,1.084738e+004
7.149730e+002,1.511090e+004,1.354856e+004,1.354856e+004,,7.717070e+002,1.208872e+004,1.083885e+004,1.083885e+004
7.150730e+002,1.504620e+004,1.353826e+004,1.353826e+004,,7.716070e+002,1.203696e+004,1.083061e+004,1.083061e+004
7.151730e+002,1.485970e+004,1.352918e+004,1.352918e+004,,7.715070e+002,1.188776e+004,1.082335e+004,1.082335e+004
7.152730e+002,1.506740e+004,1.351861e+004,1.351861e+004,,7.714070e+002,1.205392e+004,1.081489e+004,1.081489e+004
7.153730e+002,1.510570e+004,1.350770e+004,1.350770e+004,,7.713070e+002,1.208456e+004,1.080616e+004,1.080616e+004
7.154730e+002,1.495680e+004,1.349774e+004,1.349774e+004,,7.712070e+002,1.196544e+004,1.079819e+004,1.079819e+004
7.155730e+002,1.481820e+004,1.348867e+004,1.348867e+004,,7.711070e+002,1.185456e+004,1.079093e+004,1.079093e+004
7.156730e+002,1.473590e+004,1.348009e+004,1.348009e+004,,7.710070e+002,1.178872e+004,1.078408e+004,1.078408e+004
7.157730e+002,1.489010e+004,1.347040e+004,1.347040e+004,,7.709070e+002,1.191208e+004,1.077632e+004,1.077632e+004
7.158730e+002,1.502560e+004,1.345971e+004,1.345971e+004,,7.708070e+002,1.202048e+004,1.076777e+004,1.076777e+004
7.159730e+002,1.495060e+004,1.344947e+004,1.344947e+004,,7.707070e+002,1.196048e+004,1.075957e+004,1.075957e+004
7.160730e+002,1.496930e+004,1.343902e+004,1.343902e+004,,7.706070e+002,1.197544e+004,1.075122e+004,1.075122e+004
7.161730e+002,1.479430e+004,1.342971e+004,1.342971e+004,,7.705070e+002,1.183544e+004,1.074376e+004,1.074376e+004
7.162730e+002,1.454960e+004,1.342201e+004,1.342201e+004,,7.704070e+002,1.163968e+004,1.073761e+004,1.073761e+004
7.163730e+002,1.459970e+004,1.341391e+004,1.341391e+004,,7.703070e+002,1.167976e+004,1.073113e+004,1.073113e+004
7.164730e+002,1.459200e+004,1.340582e+004,1.340582e+004,,7.702070e+002,1.167360e+004,1.072465e+004,1.072465e+004
7.165730e+002,1.450920e+004,1.339823e+004,1.339823e+004,,7.701070e+002,1.160736e+004,1.071859e+004,1.071859e+004
7.166730e+002,1.459200e+004,1.339003e+004,1.339003e+004,,7.700070e+002,1.167360e+004,1.071202e+004,1.071202e+004
7.167730e+002,1.433370e+004,1.338354e+004,1.338354e+004,,7.699070e+002,1.146696e+004,1.070683e+004,1.070683e+004
7.168730e+002,1.439830e+004,1.337657e+004,1.337657e+004,,7.698070e+002,1.151864e+004,1.070125e+004,1.070125e+004
7.169730e+002,1.437550e+004,1.336970e+004,1.336970e+004,,7.697070e+002,1.150040e+004,1.069576e+004,1.069576e+004
7.170730e+002,1.415420e+004,1.336431e+004,1.336431e+004,,7.696070e+002,1.132336e+004,1.069145e+004,1.069145e+004
7.171730e+002,1.432800e+004,1.335769e+004,1.335769e+004,,7.695070e+002,1.146240e+004,1.068615e+004,1.068615e+004
7.172730e+002,1.421120e+004,1.335182e+004,1.335182e+004,,7.694070e+002,1.136896e+004,1.068146e+004,1.068146e+004
7.173730e+002,1.407430e+004,1.334686e+004,1.334686e+004,,7.693070e+002,1.125944e+004,1.067748e+004,1.067748e+004
7.174730e+002,1.403040e+004,1.334216e+004,1.334216e+004,,7.692070e+002,1.122432e+004,1.067373e+004,1.067373e+004
7.175730e+002,1.402000e+004,1.333750e+004,1.333750e+004,,7.691070e+002,1.121600e+004,1.067000e+004,1.067000e+004
7.176730e+002,1.418070e+004,1.333170e+004,1.333170e+004,,7.690070e+002,1.134456e+004,1.066536e+004,1.066536e+004
7.177730e+002,1.406650e+004,1.332665e+004,1.332665e+004,,7.689070e+002,1.125320e+004,1.066132e+004,1.066132e+004
7.178730e+002,1.398880e+004,1.332210e+004,1.332210e+004,,7.688070e+002,1.119104e+004,1.065768e+004,1.065768e+004
7.179730e+002,1.384520e+004,1.331851e+004,1.331851e+004,,7.687070e+002,1.107616e+004,1.065480e+004,1.065480e+004
7.180730e+002,1.393490e+004,1.331427e+004,1.331427e+004,,7.686070e+002,1.114792e+004,1.065142e+004,1.065142e+004
7.181730e+002,1.390100e+004,1.331024e+004,1.331024e+004,,7.685070e+002,1.112080e+004,1.064819e+004,1.064819e+004
7.182730e+002,1.386670e+004,1.330641e+004,1.330641e+004,,7.684070e+002,1.109336e+004,1.064513e+004,1.064513e+004
7.183730e+002,1.375630e+004,1.330332e+004,1.330332e+004,,7.683070e+002,1.100504e+004,1.064266e+004,1.064266e+004
7.184730e+002,1.379110e+004,1.329997e+004,1.329997e+004,,7.682070e+002,1.103288e+004,1.063997e+004,1.063997e+004
7.185730e+002,1.362620e+004,1.329773e+004,1.329773e+004,,7.681070e+002,1.090096e+004,1.063818e+004,1.063818e+004
7.186730e+002,1.369060e+004,1.329502e+004,1.329502e+004,,7.680070e+002,1.095248e+004,1.063602e+004,1.063602e+004
7.187730e+002,1.371290e+004,1.329215e+004,1.329215e+004,,7.679070e+002,1.097032e+004,1.063372e+004,1.063372e+004
7.188730e+002,1.354560e+004,1.329041e+004,1.329041e+004,,7.678070e+002,1.083648e+004,1.063233e+004,1.063233e+004
7.189730e+002,1.352510e+004,1.328880e+004,1.328880e+004,,7.677070e+002,1.082008e+004,1.063104e+004,1.063104e+004
7.190730e+002,1.356550e+004,1.328690e+004,1.328690e+004,,7.676070e+002,1.085240e+004,1.062952e+004,1.062952e+004
7.191730e+002,1.350400e+004,1.328540e+004,1.328540e+004,,7.675070e+002,1.080320e+004,1.062832e+004,1.062832e+004
7.192730e+002,1.360990e+004,1.328317e+004,1.328317e+004,,7.674070e+002,1.088792e+004,1.062654e+004,1.062654e+004
7.193730e+002,1.348820e+004,1.328176e+004,1.328176e+004,,7.673070e+002,1.079056e+004,1.062541e+004,1.062541e+004
7.194730e+002,1.340220e+004,1.328094e+004,1.328094e+004,,7.672070e+002,1.072176e+004,1.062475e+004,1.062475e+004
7.195730e+002,1.351510e+004,1.327933e+004,1.327933e+004,,7.671070e+002,1.081208e+004,1.062346e+004,1.062346e+004
7.196730e+002,1.345450e+004,1.327812e+004,1.327812e+004,,7.670070e+002,1.076360e+004,1.062250e+004,1.062250e+004
7.197730e+002,1.357510e+004,1.327608e+004,1.327608e+004,,7.669070e+002,1.086008e+004,1.062087e+004,1.062087e+004
7.198730e+002,1.335110e+004,1.327557e+004,1.327557e+004,,7.668070e+002,1.068088e+004,1.062045e+004,1.062045e+004
7.199730e+002,1.339530e+004,1.327474e+004,1.327474e+004,,7.667070e+002,1.071624e+004,1.061979e+004,1.061979e+004
7.200730e+002,1.334340e+004,1.327427e+004,1.327427e+004,,7.666070e+002,1.067472e+004,1.061942e+004,1.061942e+004
7.201730e+002,1.336530e+004,1.327365e+004,1.327365e+004,,7.665070e+002,1.069224e+004,1.061892e+004,1.061892e+004
7.202730e+002,1.348560e+004,1.327219e+004,1.327219e+004,,7.664070e+002,1.078848e+004,1.061775e+004,1.061775e+004
7.203730e+002,1.348900e+004,1.327070e+004,1.327070e+004,,7.663070e+002,1.079120e+004,1.061656e+004,1.061656e+004
7.204730e+002,1.348190e+004,1.326925e+004,1.326925e+004,,7.662070e+002,1.078552e+004,1.061540e+004,1.061540e+004
7.205730e+002,1.336020e+004,1.326862e+004,1.326862e+004,,7.661070e+002,1.068816e+004,1.061490e+004,1.061490e+004
7.206730e+002,1.331860e+004,1.326828e+004,1.326828e+004,,7.660070e+002,1.065488e+004,1.061462e+004,1.061462e+004
7.207730e+002,1.321550e+004,1.326792e+004,1.326792e+004,,7.659070e+002,1.057240e+004,1.061434e+004,1.061434e+004
7.208730e+002,1.318800e+004,1.326738e+004,1.326738e+004,,7.658070e+002,1.055040e+004,1.061390e+004,1.061390e+004
7.209730e+002,1.324280e+004,1.326721e+004,1.326721e+004,,7.657070e+002,1.059424e+004,1.061377e+004,1.061377e+004
7.210730e+002,1.340930e+004,1.326624e+004,1.326624e+004,,7.656070e+002,1.072744e+004,1.061299e+004,1.061299e+004
7.211730e+002,1.340850e+004,1.326526e+004,1.326526e+004,,7.655070e+002,1.072680e+004,1.061221e+004,1.061221e+004
7.212730e+002,1.334600e+004,1.326470e+004,1.326470e+004,,7.654070e+002,1.067680e+004,1.061176e+004,1.061176e+004
7.213730e+002,1.317420e+004,1.326409e+004,1.326409e+004,,7.653070e+002,1.053936e+004,1.061127e+004,1.061127e+004
7.214730e+002,1.342980e+004,1.326295e+004,1.326295e+004,,7.652070e+002,1.074384e+004,1.061036e+004,1.061036e+004
7.215730e+002,1.328120e+004,1.326283e+004,1.326283e+004,,7.651070e+002,1.062496e+004,1.061026e+004,1.061026e+004
7.216730e+002,1.334780e+004,1.326224e+004,1.326224e+004,,7.650070e+002,1.067824e+004,1.060979e+004,1.060979e+004
7.217730e+002,1.337390e+004,1.326147e+004,1.326147e+004,,7.649070e+002,1.069912e+004,1.060918e+004,1.060918e+004
7.218730e+002,1.344720e+004,1.326020e+004,1.326020e+004,,7.648070e+002,1.075776e+004,1.060816e+004,1.060816e+004
7.219730e+002,1.316760e+004,1.325957e+004,1.325957e+004,,7.647070e+002,1.053408e+004,1.060766e+004,1.060766e+004
7.220730e+002,1.313670e+004,1.325874e+004,1.325874e+004,,7.646070e+002,1.050936e+004,1.060699e+004,1.060699e+004
7.221730e+002,1.316550e+004,1.316550e+004,1.316550e+004,,7.645070e+002,1.053240e+004,1.053240e+004,1.053240e+004
7.222730e+002,1.313900e+004,1.313900e+004,1.313900e+004,,7.644070e+002,1.051120e+004,1.051120e+004,1.051120e+004
7.223730e+002,1.306380e+004,1.306380e+004,1.306380e+004,,7.643070e+002,1.045104e+004,1.045104e+004,1.045104e+004
7.224730e+002,1.340040e+004,1.340040e+004,1.340040e+004,,7.642070e+002,1.072032e+004,1.072032e+004,1.072032e+004
7.225730e+002,1.332300e+004,1.332300e+004,1.332300e+004,,7.641070e+002,1.065840e+004,1.065840e+004,1.065840e+004
7.226730e+002,1.313500e+004,1.313500e+004,1.313500e+004,,7.640070e+002,1.050800e+004,1.050800e+004,1.050800e+004
7.227730e+002,1.318480e+004,1.318480e+004,1.318480e+004,,7.639070e+002,1.054784e+004,1.054784e+004,1.054784e+004
7.228730e+002,1.302520e+004,1.302520e+004,1.302520e+004,,7.638070e+002,1.042016e+004,1.042016e+004,1.042016e+004
7.229730e+002,1.326770e+004,1.326770e+004,1.326770e+004,,7.637070e+002,1.061416e+004,1.061416e+004,1.061416e+004
7.230730e+002,1.321670e+004,1.321670e+004,1.321670e+004,,7.636070e+002,1.057336e+004,1.057336e+004,1.057336e+004
7.231730e+002,1.318260e+004,1.318260e+004,1.318260e+004,,7.635070e+002,1.054608e+004,1.054608e+004,1.054608e+004
7.232730e+002,1.311060e+004,1.311060e+004,1.311060e+004,,7.634070e+002,1.048848e+004,1.048848e+004,1.048848e+004
7.233730e+002,1.291320e+004,1.291320e+004,1.291320e+004,,7.633070e+002,1.033056e+004,1.033056e+004,1.033056e+004
7.234730e+002,1.301920e+004,1.301920e+004,1.301920e+004,,7.632070e+002,1.041536e+004,1.041536e+004,1.041536e+004
