"Cycle 1:Pt #002:Co2p Scan"
,Characteristic Energy eV,1.486680e+003,Acquisition Time s,1.250000e+000
Name,,
Position,,
FWHM,,
Area,,
Lineshape,,
K.E.,Counts,Background,Envelope,,B.E.,CPS,Background CPS,Envelope CPS
6.703410e+002,2.418710e+004,2.418710e+004,2.418710e+004,,8.163390e+002,1.934968e+004,1.934968e+004,1.934968e+004
6.704410e+002,2.428290e+004,2.428290e+004,2.428290e+004,,8.162390e+002,1.942632e+004,1.942632e+004,1.942632e+004
6.705410e+002,2.409330e+004,2.409330e+004,2.409330e+004,,8.161390e+002,1.927464e+004,1.927464e+004,1.927464e+004
6.706410e+002,2.418240e+004,2.418240e+004,2.418240e+004,,8.160390e+002,1.934592e+004,1.934592e+004,1.934592e+004
6.707410e+002,2.407160e+004,2.407160e+004,2.407160e+004,,8.159390e+002,1.925728e+004,1.925728e+004,1.925728e+004
6.708410e+002,2.389640e+004,2.389640e+004,2.389640e+004,,8.158390e+002,1.911712e+004,1.911712e+004,1.911712e+004
6.709410e+002,2.392600e+004,2.392600e+004,2.392600e+004,,8.157390e+002,1.914080e+004,1.914080e+004,1.914080e+004
6.710410e+002,2.390510e+004,2.390510e+004,2.390510e+004,,8.156390e+002,1.912408e+004,1.912408e+004,1.912408e+004
6.711410e+002,2.379190e+004,2.379190e+004,2.379190e+004,,8.155390e+002,1.903352e+004,1.903352e+004,1.903352e+004
6.712410e+002,2.389930e+004,2.389930e+004,2.389930e+004,,8.154390e+002,1.911944e+004,1.911944e+004,1.911944e+004
6.713410e+002,2.383620e+004,2.383620e+004,2.383620e+004,,8.153390e+002,1.906896e+004,1.906896e+004,1.906896e+004
6.714410e+002,2.370760e+004,2.370760e+004,2.370760e+004,,8.152390e+002,1.896608e+004,1.896608e+004,1.896608e+004
6.715410e+002,2.372720e+004,2.372720e+004,2.372720e+004,,8.151390e+002,1.898176e+004,1.898176e+004,1.898176e+004
6.716410e+002,2.385230e+004,2.385230e+004,2.385230e+004,,8.150390e+002,1.908184e+004,1.908184e+004,1.908184e+004
6.717410e+002,2.388020e+004,2.388020e+004,2.388020e+004,,8.149390e+002,1.910416e+004,1.910416e+004,1.910416e+004
6.718410e+002,2.390630e+004,2.390630e+004,2.390630e+004,,8.148390e+002,1.912504e+004,1.912504e+004,1.912504e+004
6.719410e+002,2.374340e+004,2.374340e+004,2.374340e+004,,8.147390e+002,1.899472e+004,1.899472e+004,1.899472e+004
6.720410e+002,2.386160e+004,2.386160e+004,2.386160e+004,,8.146390e+002,1.908928e+004,1.908928e+004,1.908928e+004
6.721410e+002,2.355700e+004,2.355700e+004,2.355700e+004,,8.145390e+002,1.884560e+004,1.884560e+004,1.884560e+004
6.722410e+002,2.376390e+004,2.376390e+004,2.376390e+004,,8.144390e+002,1.901112e+004,1.901112e+004,1.901112e+004
6.723410e+002,2.382080e+004,2.382080e+004,2.382080e+004,,8.143390e+002,1.905664e+004,1.905664e+004,1.905664e+004
6.724410e+002,2.402490e+004,2.402490e+004,2.402490e+004,,8.142390e+002,1.921992e+004,1.921992e+004,1.921992e+004
6.725410e+002,2.374290e+004,2.374290e+004,2.374290e+004,,8.141390e+002,1.899432e+004,1.899432e+004,1.899432e+004
6.726410e+002,2.381000e+004,2.381000e+004,2.381000e+004,,8.140390e+002,1.904800e+004,1.904800e+004,1.904800e+004
6.727410e+002,2.395140e+004,2.395140e+004,2.395140e+004,,8.139390e+002,1.916112e+004,1.916112e+004,1.916112e+004
6.728410e+002,2.384040e+004,2.384040e+004,2.384040e+004,,8.138390e+002,1.907232e+004,1.907232e+004,1.907232e+004
6.729410e+002,2.351900e+004,2.351900e+004,2.351900e+004,,8.137390e+002,1.881520e+004,1.881520e+004,1.881520e+004
6.730410e+002,2.339620e+004,2.339620e+004,2.339620e+004,,8.136390e+002,1.871696e+004,1.871696e+004,1.871696e+004
6.731410e+002,2.350710e+004,2.350710e+004,2.350710e+004,,8.135390e+002,1.880568e+004,1.880568e+004,1.880568e+004
6.732410e+002,2.356980e+004,2.356980e+004,2.356980e+004,,8.134390e+002,1.885584e+004,1.885584e+004,1.885584e+004
6.733410e+002,2.338880e+004,2.338880e+004,2.338880e+004,,8.133390e+002,1.871104e+004,1.871104e+004,1.871104e+004
6.734410e+002,2.354730e+004,2.354730e+004,2.354730e+004,,8.132390e+002,1.883784e+004,1.883784e+004,1.883784e+004
6.735410e+002,2.385200e+004,2.385200e+004,2.385200e+004,,8.131390e+002,1.908160e+004,1.908160e+004,1.908160e+004
6.736410e+002,2.365280e+004,2.365280e+004,2.365280e+004,,8.130390e+002,1.892224e+004,1.892224e+004,1.892224e+004
6.737410e+002,2.357260e+004,2.357260e+004,2.357260e+004,,8.129390e+002,1.885808e+004,1.885808e+004,1.885808e+004
6.738410e+002,2.372010e+004,2.372010e+004,2.372010e+004,,8.128390e+002,1.897608e+004,1.897608e+004,1.897608e+004
6.739410e+002,2.360870e+004,2.360870e+004,2.360870e+004,,8.127390e+002,1.888696e+004,1.888696e+004,1.888696e+004
6.740410e+002,2.373760e+004,2.373760e+004,2.373760e+004,,8.126390e+002,1.899008e+004,1.899008e+004,1.899008e+004
6.741410e+002,2.361130e+004,2.361130e+004,2.361130e+004,,8.125390e+002,1.888904e+004,1.888904e+004,1.888904e+004
6.742410e+002,2.341170e+004,2.341170e+004,2.341170e+004,,8.124390e+002,1.872936e+004,1.872936e+004,1.872936e+004
6.743410e+002,2.360380e+004,2.360380e+004,2.360380e+004,,8.123390e+002,1.888304e+004,1.888304e+004,1.888304e+004
6.744410e+002,2.355400e+004,2.355400e+004,2.355400e+004,,8.122390e+002,1.884320e+004,1.884320e+004,1.884320e+004
6.745410e+002,2.356250e+004,2.356250e+004,2.356250e+004,,8.121390e+002,1.885000e+004,1.885000e+004,1.885000e+004
6.746410e+002,2.362270e+004,2.362270e+004,2.362270e+004,,8.120390e+002,1.889816e+004,1.889816e+004,1.889816e+004
6.747410e+002,2.364710e+004,2.364710e+004,2.364710e+004,,8.119390e+002,1.891768e+004,1.891768e+004,1.891768e+004
6.748410e+002,2.356760e+004,2.356760e+004,2.356760e+004,,8.118390e+002,1.885408e+004,1.885408e+004,1.885408e+004
6.749410e+002,2.320420e+004,2.320420e+004,2.320420e+004,,8.117390e+002,1.856336e+004,1.856336e+004,1.856336e+004
6.750410e+002,2.346960e+004,2.346960e+004,2.346960e+004,,8.116390e+002,1.877568e+004,1.877568e+004,1.877568e+004
6.751410e+002,2.344860e+004,2.344860e+004,2.344860e+004,,8.115390e+002,1.875888e+004,1.875888e+004,1.875888e+004
6.752410e+002,2.341480e+004,2.341480e+004,2.341480e+004,,8.114390e+002,1.873184e+004,1.873184e+004,1.873184e+004
6.753410e+002,2.329050e+004,2.329050e+004,2.329050e+004,,8.113390e+002,1.863240e+004,1.863240e+004,1.863240e+004
6.754410e+002,2.338080e+004,2.338080e+004,2.338080e+004,,8.112390e+002,1.870464e+004,1.870464e+004,1.870464e+004
6.755410e+002,2.346080e+004,2.346080e+004,2.346080e+004,,8.111390e+002,1.876864e+004,1.876864e+004,1.876864e+004
6.756410e+002,2.336870e+004,2.336870e+004,2.336870e+004,,8.110390e+002,1.869496e+004,1.869496e+004,1.869496e+004
6.757410e+002,2.332120e+004,2.332120e+004,2.332120e+004,,8.109390e+002,1.865696e+004,1.865696e+004,1.865696e+004
6.758410e+002,2.329150e+004,2.329150e+004,2.329150e+004,,8.108390e+002,1.863320e+004,1.863320e+004,1.863320e+004
6.759410e+002,2.349750e+004,2.349750e+004,2.349750e+004,,8.107390e+002,1.879800e+004,1.879800e+004,1.879800e+004
6.760410e+002,2.344150e+004,2.344150e+004,2.344150e+004,,8.106390e+002,1.875320e+004,1.875320e+004,1.875320e+004
6.761410e+002,2.327910e+004,2.327910e+004,2.327910e+004,,8.105390e+002,1.862328e+004,1.862328e+004,1.862328e+004
6.762410e+002,2.337340e+004,2.337340e+004,2.337340e+004,,8.104390e+002,1.869872e+004,1.869872e+004,1.869872e+004
6.763410e+002,2.341430e+004,2.341430e+004,2.341430e+004,,8.103390e+002,1.873144e+004,1.873144e+004,1.873144e+004
6.764410e+002,2.311070e+004,2.311070e+004,2.311070e+004,,8.102390e+002,1.848856e+004,1.848856e+004,1.848856e+004
6.765410e+002,2.336840e+004,2.336840e+004,2.336840e+004,,8.101390e+002,1.869472e+004,1.869472e+004,1.869472e+004
6.766410e+002,2.345090e+004,2.345090e+004,2.345090e+004,,8.100390e+002,1.876072e+004,1.876072e+004,1.876072e+004
6.767410e+002,2.332770e+004,2.332770e+004,2.332770e+004,,8.099390e+002,1.866216e+004,1.866216e+004,1.866216e+004
6.768410e+002,2.307830e+004,2.307830e+004,2.307830e+004,,8.098390e+002,1.846264e+004,1.846264e+004,1.846264e+004
6.769410e+002,2.350570e+004,2.350570e+004,2.350570e+004,,8.097390e+002,1.880456e+004,1.880456e+004,1.880456e+004
6.770410e+002,2.332000e+004,2.332000e+004,2.332000e+004,,8.096390e+002,1.865600e+004,1.865600e+004,1.865600e+004
6.771410e+002,2.353480e+004,2.353480e+004,2.353480e+004,,8.095390e+002,1.882784e+004,1.882784e+004,1.882784e+004
6.772410e+002,2.341400e+004,2.336166e+004,2.336166e+004,,8.094390e+002,1.873120e+004,1.868933e+004,1.868933e+004
6.773410e+002,2.316720e+004,2.336029e+004,2.336029e+004,,8.093390e+002,1.853376e+004,1.868823e+004,1.868823e+004
6.774410e+002,2.344010e+004,2.335972e+004,2.335972e+004,,8.092390e+002,1.875208e+004,1.868777e+004,1.868777e+004
6.775410e+002,2.344350e+004,2.335912e+004,2.335912e+004,,8.091390e+002,1.875480e+004,1.868729e+004,1.868729e+004
6.776410e+002,2.333290e+004,2.335893e+004,2.335893e+004,,8.090390e+002,1.866632e+004,1.868715e+004,1.868715e+004
6.777410e+002,2.341820e+004,2.335851e+004,2.335851e+004,,8.089390e+002,1.873456e+004,1.868681e+004,1.868681e+004
6.778410e+002,2.332960e+004,2.335830e+004,2.335830e+004,,8.088390e+002,1.866368e+004,1.868664e+004,1.868664e+004
6.779410e+002,2.351260e+004,2.335720e+004,2.335720e+004,,8.087390e+002,1.881008e+004,1.868576e+004,1.868576e+004
6.780410e+002,2.334730e+004,2.335713e+004,2.335713e+004,,8.086390e+002,1.867784e+004,1.868570e+004,1.868570e+004
6.781410e+002,2.332110e+004,2.335687e+004,2.335687e+004,,8.085390e+002,1.865688e+004,1.868550e+004,1.868550e+004
6.782410e+002,2.338840e+004,2.335665e+004,2.335665e+004,,8.084390e+002,1.871072e+004,1.868532e+004,1.868532e+004
6.783410e+002,2.319170e+004,2.335548e+004,2.335548e+004,,8.083390e+002,1.855336e+004,1.868438e+004,1.868438e+004
6.784410e+002,2.350790e+004,2.335439e+004,2.335439e+004,,8.082390e+002,1.880632e+004,1.868351e+004,1.868351e+004
6.785410e+002,2.353390e+004,2.335310e+004,2.335310e+004,,8.081390e+002,1.882712e+004,1.868248e+004,1.868248e+004
6.786410e+002,2.369470e+004,2.335065e+004,2.335065e+004,,8.080390e+002,1.895576e+004,1.868052e+004,1.868052e+004
6.787410e+002,2.332000e+004,2.335044e+004,2.335044e+004,,8.079390e+002,1.865600e+004,1.868035e+004,1.868035e+004
6.788410e+002,2.339950e+004,2.335009e+004,2.335009e+004,,8.078390e+002,1.871960e+004,1.868007e+004,1.868007e+004
6.789410e+002,2.317250e+004,2.334883e+004,2.334883e+004,,8.077390e+002,1.853800e+004,1.867906e+004,1.867906e+004
6.790410e+002,2.318200e+004,2.334765e+004,2.334765e+004,,8.076390e+002,1.854560e+004,1.867812e+004,1.867812e+004
6.791410e+002,2.336370e+004,2.334754e+004,2.334754e+004,,8.075390e+002,1.869096e+004,1.867803e+004,1.867803e+004
6.792410e+002,2.336260e+004,2.334743e+004,2.334743e+004,,8.074390e+002,1.869008e+004,1.867794e+004,1.867794e+004
6.793410e+002,2.340330e+004,2.334703e+004,2.334703e+004,,8.073390e+002,1.872264e+004,1.867762e+004,1.867762e+004
6.794410e+002,2.341880e+004,2.334651e+004,2.334651e+004,,8.072390e+002,1.873504e+004,1.867721e+004,1.867721e+004
6.795410e+002,2.344650e+004,2.334580e+004,2.334580e+004,,8.071390e+002,1.875720e+004,1.867664e+004,1.867664e+004
6.796410e+002,2.361880e+004,2.334384e+004,2.334384e+004,,8.070390e+002,1.889504e+004,1.867507e+004,1.867507e+004
6.797410e+002,2.347150e+004,2.334293e+004,2.334293e+004,,8.069390e+002,1.877720e+004,1.867434e+004,1.867434e+004
6.798410e+002,2.337810e+004,2.334267e+004,2.334267e+004,,8.068390e+002,1.870248e+004,1.867414e+004,1.867414e+004
6.799410e+002,2.342490e+004,2.334208e+004,2.334208e+004,,8.067390e+002,1.873992e+004,1.867367e+004,1.867367e+004
6.800410e+002,2.336930e+004,2.334189e+004,2.334189e+004,,8.066390e+002,1.869544e+004,1.867351e+004,1.867351e+004
6.801410e+002,2.373710e+004,2.333906e+004,2.333906e+004,,8.065390e+002,1.898968e+004,1.867124e+004,1.867124e+004
6.802410e+002,2.387640e+004,2.333520e+004,2.333520e+004,,8.064390e+002,1.910112e+004,1.866816e+004,1.866816e+004
6.803410e+002,2.371370e+004,2.333249e+004,2.333249e+004,,8.063390e+002,1.897096e+004,1.866599e+004,1.866599e+004
6.804410e+002,2.368840e+004,2.332994e+004,2.332994e+004,,8.062390e+002,1.895072e+004,1.866395e+004,1.866395e+004
6.805410e+002,2.365010e+004,2.332765e+004,2.332765e+004,,8.061390e+002,1.892008e+004,1.866212e+004,1.866212e+004
6.806410e+002,2.397000e+004,2.332304e+004,2.332304e+004,,8.060390e+002,1.917600e+004,1.865843e+004,1.865843e+004
6.807410e+002,2.373050e+004,2.332012e+004,2.332012e+004,,8.059390e+002,1.898440e+004,1.865610e+004,1.865610e+004
6.808410e+002,2.378180e+004,2.331681e+004,2.331681e+004,,8.058390e+002,1.902544e+004,1.865345e+004,1.865345e+004
6.809410e+002,2.396870e+004,2.331214e+004,2.331214e+004,,8.057390e+002,1.917496e+004,1.864971e+004,1.864971e+004
6.810410e+002,2.374640e+004,2.330903e+004,2.330903e+004,,8.056390e+002,1.899712e+004,1.864722e+004,1.864722e+004
6.811410e+002,2.405180e+004,2.330370e+004,2.330370e+004,,8.055390e+002,1.924144e+004,1.864296e+004,1.864296e+004
6.812410e+002,2.397550e+004,2.329889e+004,2.329889e+004,,8.054390e+002,1.918040e+004,1.863911e+004,1.863911e+004
6.813410e+002,2.391310e+004,2.329449e+004,2.329449e+004,,8.053390e+002,1.913048e+004,1.863559e+004,1.863559e+004
6.814410e+002,2.414400e+004,2.328840e+004,2.328840e+004,,8.052390e+002,1.931520e+004,1.863072e+004,1.863072e+004
6.815410e+002,2.414670e+004,2.328225e+004,2.328225e+004,,8.051390e+002,1.931736e+004,1.862580e+004,1.862580e+004
6.816410e+002,2.430720e+004,2.327490e+004,2.327490e+004,,8.050390e+002,1.944576e+004,1.861992e+004,1.861992e+004
6.817410e+002,2.424900e+004,2.326792e+004,2.326792e+004,,8.049390e+002,1.939920e+004,1.861433e+004,1.861433e+004
6.818410e+002,2.425830e+004,2.326082e+004,2.326082e+004,,8.048390e+002,1.940664e+004,1.860865e+004,1.860865e+004
6.819410e+002,2.432370e+004,2.325320e+004,2.325320e+004,,8.047390e+002,1.945896e+004,1.860256e+004,1.860256e+004
6.820410e+002,2.408140e+004,2.324726e+004,2.324726e+004,,8.046390e+002,1.926512e+004,1.859781e+004,1.859781e+004
6.821410e+002,2.462500e+004,2.323739e+004,2.323739e+004,,8.045390e+002,1.970000e+004,1.858991e+004,1.858991e+004
6.822410e+002,2.446650e+004,2.322858e+004,2.322858e+004,,8.044390e+002,1.957320e+004,1.858286e+004,1.858286e+004
6.823410e+002,2.451020e+004,2.321939e+004,2.321939e+004,,8.043390e+002,1.960816e+004,1.857551e+004,1.857551e+004
6.824410e+002,2.443570e+004,2.321068e+004,2.321068e+004,,8.042390e+002,1.954856e+004,1.856854e+004,1.856854e+004
6.825410e+002,2.483140e+004,2.319906e+004,2.319906e+004,,8.041390e+002,1.986512e+004,1.855925e+004,1.855925e+004
6.826410e+002,2.446600e+004,2.318998e+004,2.318998e+004,,8.040390e+002,1.957280e+004,1.855198e+004,1.855198e+004
6.827410e+002,2.474760e+004,2.317881e+004,2.317881e+004,,8.039390e+002,1.979808e+004,1.854305e+004,1.854305e+004
6.828410e+002,2.482580e+004,2.316701e+004,2.316701e+004,,8.038390e+002,1.986064e+004,1.853361e+004,1.853361e+004
6.829410e+002,2.513720e+004,2.315289e+004,2.315289e+004,,8.037390e+002,2.010976e+004,1.852231e+004,1.852231e+004
6.830410e+002,2.492300e+004,2.314020e+004,2.314020e+004,,8.036390e+002,1.993840e+004,1.851216e+004,1.851216e+004
6.831410e+002,2.478640e+004,2.312840e+004,2.312840e+004,,8.035390e+002,1.982912e+004,1.850272e+004,1.850272e+004
6.832410e+002,2.527120e+004,2.311304e+004,2.311304e+004,,8.034390e+002,2.021696e+004,1.849043e+004,1.849043e+004
6.833410e+002,2.525300e+004,2.309770e+004,2.309770e+004,,8.033390e+002,2.020240e+004,1.847816e+004,1.847816e+004
6.834410e+002,2.505450e+004,2.308368e+004,2.308368e+004,,8.032390e+002,2.004360e+004,1.846694e+004,1.846694e+004
6.835410e+002,2.503880e+004,2.306967e+004,2.306967e+004,,8.031390e+002,2.003104e+004,1.845573e+004,1.845573e+004
6.836410e+002,2.525170e+004,2.305403e+004,2.305403e+004,,8.030390e+002,2.020136e+004,1.844322e+004,1.844322e+004
6.837410e+002,2.542750e+004,2.303701e+004,2.303701e+004,,8.029390e+002,2.034200e+004,1.842961e+004,1.842961e+004
6.838410e+002,2.523560e+004,2.302126e+004,2.302126e+004,,8.028390e+002,2.018848e+004,1.841700e+004,1.841700e+004
6.839410e+002,2.558170e+004,2.300290e+004,2.300290e+004,,8.027390e+002,2.046536e+004,1.840232e+004,1.840232e+004
6.840410e+002,2.533220e+004,2.298621e+004,2.298621e+004,,8.026390e+002,2.026576e+004,1.838897e+004,1.838897e+004
6.841410e+002,2.542730e+004,2.296871e+004,2.296871e+004,,8.025390e+002,2.034184e+004,1.837497e+004,1.837497e+004
6.842410e+002,2.553750e+004,2.295030e+004,2.295030e+004,,8.024390e+002,2.043000e+004,1.836024e+004,1.836024e+004
6.843410e+002,2.569070e+004,2.293066e+004,2.293066e+004,,8.023390e+002,2.055256e+004,1.834453e+004,1.834453e+004
6.844410e+002,2.544830e+004,2.291261e+004,2.291261e+004,,8.022390e+002,2.035864e+004,1.833009e+004,1.833009e+004
6.845410e+002,2.539910e+004,2.289479e+004,2.289479e+004,,8.021390e+002,2.031928e+004,1.831583e+004,1.831583e+004
6.846410e+002,2.554680e+004,2.287578e+004,2.287578e+004,,8.020390e+002,2.043744e+004,1.830063e+004,1.830063e+004
6.847410e+002,2.570260e+004,2.285552e+004,2.285552e+004,,8.019390e+002,2.056208e+004,1.828442e+004,1.828442e+004
6.848410e+002,2.549200e+004,2.283662e+004,2.283662e+004,,8.018390e+002,2.039360e+004,1.826930e+004,1.826930e+004
6.849410e+002,2.544070e+004,2.281796e+004,2.281796e+004,,8.017390e+002,2.035256e+004,1.825437e+004,1.825437e+004
6.850410e+002,2.534670e+004,2.279983e+004,2.279983e+004,,8.016390e+002,2.027736e+004,1.823987e+004,1.823987e+004
6.851410e+002,2.566730e+004,2.277928e+004,2.277928e+004,,8.015390e+002,2.053384e+004,1.822343e+004,1.822343e+004
6.852410e+002,2.529450e+004,2.276125e+004,2.276125e+004,,8.014390e+002,2.023560e+004,1.820900e+004,1.820900e+004
6.853410e+002,2.553180e+004,2.274140e+004,2.274140e+004,,8.013390e+002,2.042544e+004,1.819312e+004,1.819312e+004
6.854410e+002,2.513940e+004,2.272421e+004,2.272421e+004,,8.012390e+002,2.011152e+004,1.817937e+004,1.817937e+004
6.855410e+002,2.519780e+004,2.270648e+004,2.270648e+004,,8.011390e+002,2.015824e+004,1.816518e+004,1.816518e+004
6.856410e+002,2.482570e+004,2.269129e+004,2.269129e+004,,8.010390e+002,1.986056e+004,1.815303e+004,1.815303e+004
6.857410e+002,2.500530e+004,2.267470e+004,2.267470e+004,,8.009390e+002,2.000424e+004,1.813976e+004,1.813976e+004
6.858410e+002,2.479030e+004,2.265954e+004,2.265954e+004,,8.008390e+002,1.983224e+004,1.812763e+004,1.812763e+004
6.859410e+002,2.468140e+004,2.264505e+004,2.264505e+004,,8.007390e+002,1.974512e+004,1.811604e+004,1.811604e+004
6.860410e+002,2.475210e+004,2.262995e+004,2.262995e+004,,8.006390e+002,1.980168e+004,1.810396e+004,1.810396e+004
6.861410e+002,2.469950e+004,2.261511e+004,2.261511e+004,,8.005390e+002,1.975960e+004,1.809209e+004,1.809209e+004
6.862410e+002,2.457900e+004,2.260104e+004,2.260104e+004,,8.004390e+002,1.966320e+004,1.808083e+004,1.808083e+004
6.863410e+002,2.450920e+004,2.258736e+004,2.258736e+004,,8.003390e+002,1.960736e+004,1.806989e+004,1.806989e+004
6.864410e+002,2.458430e+004,2.257305e+004,2.257305e+004,,8.002390e+002,1.966744e+004,1.805844e+004,1.805844e+004
6.865410e+002,2.457820e+004,2.255867e+004,2.255867e+004,,8.001390e+002,1.966256e+004,1.804694e+004,1.804694e+004
6.866410e+002,2.413310e+004,2.254739e+004,2.254739e+004,,8.000390e+002,1.930648e+004,1.803791e+004,1.803791e+004
6.867410e+002,2.414230e+004,2.253596e+004,2.253596e+004,,7.999390e+002,1.931384e+004,1.802877e+004,1.802877e+004
6.868410e+002,2.400180e+004,2.252545e+004,2.252545e+004,,7.998390e+002,1.920144e+004,1.802036e+004,1.802036e+004
6.869410e+002,2.431270e+004,2.251264e+004,2.251264e+004,,7.997390e+002,1.945016e+004,1.801011e+004,1.801011e+004
6.870410e+002,2.393700e+004,2.250243e+004,2.250243e+004,,7.996390e+002,1.914960e+004,1.800195e+004,1.800195e+004
6.871410e+002,2.400670e+004,2.249165e+004,2.249165e+004,,7.995390e+002,1.920536e+004,1.799332e+004,1.799332e+004
6.872410e+002,2.420340e+004,2.247938e+004,2.247938e+004,,7.994390e+002,1.936272e+004,1.798350e+004,1.798350e+004
6.873410e+002,2.415490e+004,2.246737e+004,2.246737e+004,,7.993390e+002,1.932392e+004,1.797390e+004,1.797390e+004
6.874410e+002,2.412800e+004,2.245547e+004,2.245547e+004,,7.992390e+002,1.930240e+004,1.796438e+004,1.796438e+004
6.875410e+002,2.393940e+004,2.244483e+004,2.244483e+004,,7.991390e+002,1.915152e+004,1.795587e+004,1.795587e+004
6.876410e+002,2.415000e+004,2.243261e+004,2.243261e+004,,7.990390e+002,1.932000e+004,1.794609e+004,1.794609e+004
6.877410e+002,2.439270e+004,2.241856e+004,2.241856e+004,,7.989390e+002,1.951416e+004,1.793485e+004,1.793485e+004
6.878410e+002,2.388460e+004,2.240805e+004,2.240805e+004,,7.988390e+002,1.910768e+004,1.792644e+004,1.792644e+004
6.879410e+002,2.391440e+004,2.239726e+004,2.239726e+004,,7.987390e+002,1.913152e+004,1.791781e+004,1.791781e+004
6.880410e+002,2.407490e+004,2.238523e+004,2.238523e+004,,7.986390e+002,1.925992e+004,1.790819e+004,1.790819e+004
6.881410e+002,2.423060e+004,2.237201e+004,2.237201e+004,,7.985390e+002,1.938448e+004,1.789760e+004,1.789760e+004
6.882410e+002,2.460840e+004,2.235598e+004,2.235598e+004,,7.984390e+002,1.968672e+004,1.788478e+004,1.788478e+004
6.883410e+002,2.428210e+004,2.234217e+004,2.234217e+004,,7.983390e+002,1.942568e+004,1.787374e+004,1.787374e+004
6.884410e+002,2.440430e+004,2.232739e+004,2.232739e+004,,7.982390e+002,1.952344e+004,1.786191e+004,1.786191e+004
6.885410e+002,2.453820e+004,2.231154e+004,2.231154e+004,,7.981390e+002,1.963056e+004,1.784924e+004,1.784924e+004
6.886410e+002,2.439020e+004,2.229664e+004,2.229664e+004,,7.980390e+002,1.951216e+004,1.783732e+004,1.783732e+004
6.887410e+002,2.491260e+004,2.227789e+004,2.227789e+004,,7.979390e+002,1.993008e+004,1.782232e+004,1.782232e+004
6.888410e+002,2.503740e+004,2.225812e+004,2.225812e+004,,7.978390e+002,2.002992e+004,1.780649e+004,1.780649e+004
6.889410e+002,2.461130e+004,2.224125e+004,2.224125e+004,,7.977390e+002,1.968904e+004,1.779300e+004,1.779300e+004
6.890410e+002,2.503790e+004,2.222120e+004,2.222120e+004,,7.976390e+002,2.003032e+004,1.777696e+004,1.777696e+004
6.891410e+002,2.561550e+004,2.219688e+004,2.219688e+004,,7.975390e+002,2.049240e+004,1.775750e+004,1.775750e+004
6.892410e+002,2.571040e+004,2.217169e+004,2.217169e+004,,7.974390e+002,2.056832e+004,1.773735e+004,1.773735e+004
6.893410e+002,2.548400e+004,2.214795e+004,2.214795e+004,,7.973390e+002,2.038720e+004,1.771836e+004,1.771836e+004
6.894410e+002,2.548710e+004,2.212402e+004,2.212402e+004,,7.972390e+002,2.038968e+004,1.769921e+004,1.769921e+004
6.895410e+002,2.562370e+004,2.209893e+004,2.209893e+004,,7.971390e+002,2.049896e+004,1.767915e+004,1.767915e+004
6.896410e+002,2.580150e+004,2.207240e+004,2.207240e+004,,7.970390e+002,2.064120e+004,1.765792e+004,1.765792e+004
6.897410e+002,2.583270e+004,2.204544e+004,2.204544e+004,,7.969390e+002,2.066616e+004,1.763635e+004,1.763635e+004
6.898410e+002,2.608850e+004,2.201646e+004,2.201646e+004,,7.968390e+002,2.087080e+004,1.761317e+004,1.761317e+004
6.899410e+002,2.629140e+004,2.198582e+004,2.198582e+004,,7.967390e+002,2.103312e+004,1.758866e+004,1.758866e+004
6.900410e+002,2.654900e+004,2.195312e+004,2.195312e+004,,7.966390e+002,2.123920e+004,1.756249e+004,1.756249e+004
6.901410e+002,2.643300e+004,2.192101e+004,2.192101e+004,,7.965390e+002,2.114640e+004,1.753681e+004,1.753681e+004
6.902410e+002,2.672740e+004,2.188656e+004,2.188656e+004,,7.964390e+002,2.138192e+004,1.750925e+004,1.750925e+004
6.903410e+002,2.651640e+004,2.185337e+004,2.185337e+004,,7.963390e+002,2.121312e+004,1.748270e+004,1.748270e+004
6.904410e+002,2.669590e+004,2.181866e+004,2.181866e+004,,7.962390e+002,2.135672e+004,1.745493e+004,1.745493e+004
6.905410e+002,2.661830e+004,2.178426e+004,2.178426e+004,,7.961390e+002,2.129464e+004,1.742741e+004,1.742741e+004
6.906410e+002,2.635700e+004,2.175149e+004,2.175149e+004,,7.960390e+002,2.108560e+004,1.740119e+004,1.740119e+004
6.907410e+002,2.657970e+004,2.171688e+004,2.171688e+004,,7.959390e+002,2.126376e+004,1.737350e+004,1.737350e+004
6.908410e+002,2.638850e+004,2.168340e+004,2.168340e+004,,7.958390e+002,2.111080e+004,1.734672e+004,1.734672e+004
6.909410e+002,2.622840e+004,2.165082e+004,2.165082e+004,,7.957390e+002,2.098272e+004,1.732066e+004,1.732066e+004
6.910410e+002,2.614540e+004,2.161861e+004,2.161861e+004,,7.956390e+002,2.091632e+004,1.729488e+004,1.729488e+004
6.911410e+002,2.621430e+004,2.158567e+004,2.158567e+004,,7.955390e+002,2.097144e+004,1.726853e+004,1.726853e+004
6.912410e+002,2.581810e+004,2.155533e+004,2.155533e+004,,7.954390e+002,2.065448e+004,1.724426e+004,1.724426e+004
6.913410e+002,2.565240e+004,2.152596e+004,2.152596e+004,,7.953390e+002,2.052192e+004,1.722077e+004,1.722077e+004
6.914410e+002,2.536090e+004,2.149848e+004,2.149848e+004,,7.952390e+002,2.028872e+004,1.719878e+004,1.719878e+004
6.915410e+002,2.540880e+004,2.147045e+004,2.147045e+004,,7.951390e+002,2.032704e+004,1.717636e+004,1.717636e+004
6.916410e+002,2.524310e+004,2.144341e+004,2.144341e+004,,7.950390e+002,2.019448e+004,1.715473e+004,1.715473e+004
6.917410e+002,2.489080e+004,2.141870e+004,2.141870e+004,,7.949390e+002,1.991264e+004,1.713496e+004,1.713496e+004
6.918410e+002,2.485620e+004,2.139406e+004,2.139406e+004,,7.948390e+002,1.988496e+004,1.711525e+004,1.711525e+004
6.919410e+002,2.441930e+004,2.137238e+004,2.137238e+004,,7.947390e+002,1.953544e+004,1.709790e+004,1.709790e+004
6.920410e+002,2.407870e+004,2.135298e+004,2.135298e+004,,7.946390e+002,1.926296e+004,1.708238e+004,1.708238e+004
6.921410e+002,2.389360e+004,2.133477e+004,2.133477e+004,,7.945390e+002,1.911488e+004,1.706781e+004,1.706781e+004
6.922410e+002,2.381600e+004,2.131698e+004,2.131698e+004,,7.944390e+002,1.905280e+004,1.705359e+004,1.705359e+004
6.923410e+002,2.335140e+004,2.130240e+004,2.130240e+004,,7.943390e+002,1.868112e+004,1.704192e+004,1.704192e+004
6.924410e+002,2.334520e+004,2.128776e+004,2.128776e+004,,7.942390e+002,1.867616e+004,1.703021e+004,1.703021e+004
6.925410e+002,2.327810e+004,2.127349e+004,2.127349e+004,,7.941390e+002,1.862248e+004,1.701880e+004,1.701880e+004
6.926410e+002,2.266010e+004,2.126356e+004,2.126356e+004,,7.940390e+002,1.812808e+004,1.701084e+004,1.701084e+004
6.927410e+002,2.292740e+004,2.125163e+004,2.125163e+004,,7.939390e+002,1.834192e+004,1.700130e+004,1.700130e+004
6.928410e+002,2.270570e+004,2.124121e+004,2.124121e+004,,7.938390e+002,1.816456e+004,1.699297e+004,1.699297e+004
6.929410e+002,2.226230e+004,2.123389e+004,2.123389e+004,,7.937390e+002,1.780984e+004,1.698711e+004,1.698711e+004
6.930410e+002,2.231540e+004,2.122614e+004,2.122614e+004,,7.936390e+002,1.785232e+004,1.698091e+004,1.698091e+004
6.931410e+002,2.228630e+004,2.121854e+004,2.121854e+004,,7.935390e+002,1.782904e+004,1.697483e+004,1.697483e+004
6.932410e+002,2.194830e+004,2.121331e+004,2.121331e+004,,7.934390e+002,1.755864e+004,1.697065e+004,1.697065e+004
6.933410e+002,2.199320e+004,2.120772e+004,2.120772e+004,,7.933390e+002,1.759456e+004,1.696617e+004,1.696617e+004
6.934410e+002,2.176250e+004,2.120374e+004,2.120374e+004,,7.932390e+002,1.741000e+004,1.696299e+004,1.696299e+004
6.935410e+002,2.150060e+004,2.120161e+004,2.120161e+004,,7.931390e+002,1.720048e+004,1.696129e+004,1.696129e+004
6.936410e+002,2.133290e+004,2.120067e+004,2.120067e+004,,7.930390e+002,1.706632e+004,1.696054e+004,1.696054e+004
6.937410e+002,2.145090e+004,2.119888e+004,2.119888e+004,,7.929390e+002,1.716072e+004,1.695910e+004,1.695910e+004
6.938410e+002,2.118270e+004,2.119876e+004,2.119876e+004,,7.928390e+002,1.694616e+004,1.695901e+004,1.695901e+004
6.939410e+002,2.128250e+004,2.119816e+004,2.119816e+004,,7.927390e+002,1.702600e+004,1.695853e+004,1.695853e+004
6.940410e+002,2.137280e+004,2.119691e+004,2.119691e+004,,7.926390e+002,1.709824e+004,1.695753e+004,1.695753e+004
6.941410e+002,2.132690e+004,2.119598e+004,2.119598e+004,,7.925390e+002,1.706152e+004,1.695678e+004,1.695678e+004
6.942410e+002,2.114920e+004,2.119565e+004,2.119565e+004,,7.924390e+002,1.691936e+004,1.695652e+004,1.695652e+004
6.943410e+002,2.156380e+004,2.119301e+004,2.119301e+004,,7.923390e+002,1.725104e+004,1.695441e+004,1.695441e+004
6.944410e+002,2.125960e+004,2.119253e+004,2.119253e+004,,7.922390e+002,1.700768e+004,1.695403e+004,1.695403e+004
6.945410e+002,2.112680e+004,2.119207e+004,2.119207e+004,,7.921390e+002,1.690144e+004,1.695365e+004,1.695365e+004
6.946410e+002,2.103140e+004,2.119093e+004,2.119093e+004,,7.920390e+002,1.682512e+004,1.695275e+004,1.695275e+004
6.947410e+002,2.124190e+004,2.119057e+004,2.119057e+004,,7.919390e+002,1.699352e+004,1.695245e+004,1.695245e+004
6.948410e+002,2.124730e+004,2.119016e+004,2.119016e+004,,7.918390e+002,1.699784e+004,1.695213e+004,1.695213e+004
6.949410e+002,2.129530e+004,2.118941e+004,2.118941e+004,,7.917390e+002,1.703624e+004,1.695153e+004,1.695153e+004
6.950410e+002,2.106400e+004,2.118852e+004,2.118852e+004,,7.916390e+002,1.685120e+004,1.695082e+004,1.695082e+004
6.951410e+002,2.105650e+004,2.118759e+004,2.118759e+004,,7.915390e+002,1.684520e+004,1.695007e+004,1.695007e+004
6.952410e+002,2.131140e+004,2.118670e+004,2.118670e+004,,7.914390e+002,1.704912e+004,1.694936e+004,1.694936e+004
6.953410e+002,2.111320e+004,2.118618e+004,2.118618e+004,,7.913390e+002,1.689056e+004,1.694895e+004,1.694895e+004
6.954410e+002,2.139140e+004,2.118471e+004,2.118471e+004,,7.912390e+002,1.711312e+004,1.694777e+004,1.694777e+004
6.955410e+002,2.124020e+004,2.118431e+004,2.118431e+004,,7.911390e+002,1.699216e+004,1.694745e+004,1.694745e+004
6.956410e+002,2.150340e+004,2.118203e+004,2.118203e+004,,7.910390e+002,1.720272e+004,1.694562e+004,1.694562e+004
6.957410e+002,2.141590e+004,2.118035e+004,2.118035e+004,,7.909390e+002,1.713272e+004,1.694428e+004,1.694428e+004
6.958410e+002,2.141510e+004,2.117867e+004,2.117867e+004,,7.908390e+002,1.713208e+004,1.694293e+004,1.694293e+004
6.959410e+002,2.147090e+004,2.117657e+004,2.117657e+004,,7.907390e+002,1.717672e+004,1.694126e+004,1.694126e+004
6.960410e+002,2.155470e+004,2.117386e+004,2.117386e+004,,7.906390e+002,1.724376e+004,1.693909e+004,1.693909e+004
6.961410e+002,2.170170e+004,2.117008e+004,2.117008e+004,,7.905390e+002,1.736136e+004,1.693606e+004,1.693606e+004
6.962410e+002,2.160940e+004,2.116693e+004,2.116693e+004,,7.904390e+002,1.728752e+004,1.693354e+004,1.693354e+004
6.963410e+002,2.158240e+004,2.116395e+004,2.116395e+004,,7.903390e+002,1.726592e+004,1.693116e+004,1.693116e+004
6.964410e+002,2.165300e+004,2.116045e+004,2.116045e+004,,7.902390e+002,1.732240e+004,1.692836e+004,1.692836e+004
6.965410e+002,2.170000e+004,2.115658e+004,2.115658e+004,,7.901390e+002,1.736000e+004,1.692526e+004,1.692526e+004
6.966410e+002,2.187350e+004,2.115144e+004,2.115144e+004,,7.900390e+002,1.749880e+004,1.692115e+004,1.692115e+004
6.967410e+002,2.188120e+004,2.114621e+004,2.114621e+004,,7.899390e+002,1.750496e+004,1.691697e+004,1.691697e+004
6.968410e+002,2.191810e+004,2.114068e+004,2.114068e+004,,7.898390e+002,1.753448e+004,1.691254e+004,1.691254e+004
6.969410e+002,2.202260e+004,2.113435e+004,2.113435e+004,,7.897390e+002,1.761808e+004,1.690748e+004,1.690748e+004
6.970410e+002,2.215240e+004,2.112706e+004,2.112706e+004,,7.896390e+002,1.772192e+004,1.690165e+004,1.690165e+004
6.971410e+002,2.200790e+004,2.112074e+004,2.112074e+004,,7.895390e+002,1.760632e+004,1.689660e+004,1.689660e+004
6.972410e+002,2.228470e+004,2.111240e+004,2.111240e+004,,7.894390e+002,1.782776e+004,1.688992e+004,1.688992e+004
6.973410e+002,2.205460e+004,2.110565e+004,2.110565e+004,,7.893390e+002,1.764368e+004,1.688452e+004,1.688452e+004
6.974410e+002,2.221810e+004,2.109767e+004,2.109767e+004,,7.892390e+002,1.777448e+004,1.687814e+004,1.687814e+004
6.975410e+002,2.216240e+004,2.109004e+004,2.109004e+004,,7.891390e+002,1.772992e+004,1.687203e+004,1.687203e+004
6.976410e+002,2.233230e+004,2.108114e+004,2.108114e+004,,7.890390e+002,1.786584e+004,1.686491e+004,1.686491e+004
6.977410e+002,2.251350e+004,2.107087e+004,2.107087e+004,,7.889390e+002,1.801080e+004,1.685670e+004,1.685670e+004
6.978410e+002,2.278580e+004,2.105858e+004,2.105858e+004,,7.888390e+002,1.822864e+004,1.684686e+004,1.684686e+004
6.979410e+002,2.276940e+004,2.104632e+004,2.104632e+004,,7.887390e+002,1.821552e+004,1.683705e+004,1.683705e+004
6.980410e+002,2.248030e+004,2.103604e+004,2.103604e+004,,7.886390e+002,1.798424e+004,1.682883e+004,1.682883e+004
6.981410e+002,2.293350e+004,2.102244e+004,2.102244e+004,,7.885390e+002,1.834680e+004,1.681795e+004,1.681795e+004
6.982410e+002,2.290980e+004,2.100891e+004,2.100891e+004,,7.884390e+002,1.832784e+004,1.680713e+004,1.680713e+004
6.983410e+002,2.298870e+004,2.099472e+004,2.099472e+004,,7.883390e+002,1.839096e+004,1.679578e+004,1.679578e+004
6.984410e+002,2.299730e+004,2.098037e+004,2.098037e+004,,7.882390e+002,1.839784e+004,1.678429e+004,1.678429e+004
6.985410e+002,2.311590e+004,2.096506e+004,2.096506e+004,,7.881390e+002,1.849272e+004,1.677205e+004,1.677205e+004
6.986410e+002,2.323850e+004,2.094877e+004,2.094877e+004,,7.880390e+002,1.859080e+004,1.675901e+004,1.675901e+004
6.987410e+002,2.331360e+004,2.093182e+004,2.093182e+004,,7.879390e+002,1.865088e+004,1.674545e+004,1.674545e+004
6.988410e+002,2.347280e+004,2.091360e+004,2.091360e+004,,7.878390e+002,1.877824e+004,1.673088e+004,1.673088e+004
6.989410e+002,2.358880e+004,2.089443e+004,2.089443e+004,,7.877390e+002,1.887104e+004,1.671554e+004,1.671554e+004
6.990410e+002,2.341900e+004,2.087633e+004,2.087633e+004,,7.876390e+002,1.873520e+004,1.670107e+004,1.670107e+004
6.991410e+002,2.360200e+004,2.085680e+004,2.085680e+004,,7.875390e+002,1.888160e+004,1.668544e+004,1.668544e+004
6.992410e+002,2.373590e+004,2.083616e+004,2.083616e+004,,7.874390e+002,1.898872e+004,1.666893e+004,1.666893e+004
6.993410e+002,2.377790e+004,2.081508e+004,2.081508e+004,,7.873390e+002,1.902232e+004,1.665206e+004,1.665206e+004
6.994410e+002,2.414930e+004,2.079118e+004,2.079118e+004,,7.872390e+002,1.931944e+004,1.663294e+004,1.663294e+004
6.995410e+002,2.401150e+004,2.076810e+004,2.076810e+004,,7.871390e+002,1.920920e+004,1.661448e+004,1.661448e+004
6.996410e+002,2.401490e+004,2.074483e+004,2.074483e+004,,7.870390e+002,1.921192e+004,1.659586e+004,1.659586e+004
6.997410e+002,2.409100e+004,2.072084e+004,2.072084e+004,,7.869390e+002,1.927280e+004,1.657667e+004,1.657667e+004
6.998410e+002,2.419390e+004,2.069595e+004,2.069595e+004,,7.868390e+002,1.935512e+004,1.655676e+004,1.655676e+004
6.999410e+002,2.434780e+004,2.066977e+004,2.066977e+004,,7.867390e+002,1.947824e+004,1.653582e+004,1.653582e+004
7.000410e+002,2.445610e+004,2.064264e+004,2.064264e+004,,7.866390e+002,1.956488e+004,1.651411e+004,1.651411e+004
7.001410e+002,2.451730e+004,2.061486e+004,2.061486e+004,,7.865390e+002,1.961384e+004,1.649189e+004,1.649189e+004
7.002410e+002,2.474330e+004,2.058527e+004,2.058527e+004,,7.864390e+002,1.979464e+004,1.646822e+004,1.646822e+004
7.003410e+002,2.456060e+004,2.055678e+004,2.055678e+004,,7.863390e+002,1.964848e+004,1.644542e+004,1.644542e+004
7.004410e+002,2.469160e+004,2.052714e+004,2.052714e+004,,7.862390e+002,1.975328e+004,1.642172e+004,1.642172e+004
7.005410e+002,2.481580e+004,2.049641e+004,2.049641e+004,,7.861390e+002,1.985264e+004,1.639712e+004,1.639712e+004
7.006410e+002,2.464220e+004,2.046669e+004,2.046669e+004,,7.860390e+002,1.971376e+004,1.637335e+004,1.637335e+004
7.007410e+002,2.453980e+004,2.043750e+004,2.043750e+004,,7.859390e+002,1.963184e+004,1.635000e+004,1.635000e+004
7.008410e+002,2.471250e+004,2.040686e+004,2.040686e+004,,7.858390e+002,1.977000e+004,1.632548e+004,1.632548e+004
7.009410e+002,2.480120e+004,2.037536e+004,2.037536e+004,,7.857390e+002,1.984096e+004,1.630029e+004,1.630029e+004
7.010410e+002,2.461280e+004,2.034499e+004,2.034499e+004,,7.856390e+002,1.969024e+004,1.627599e+004,1.627599e+004
7.011410e+002,2.503160e+004,2.031140e+004,2.031140e+004,,7.855390e+002,2.002528e+004,1.624912e+004,1.624912e+004
7.012410e+002,2.461520e+004,2.028055e+004,2.028055e+004,,7.854390e+002,1.969216e+004,1.622444e+004,1.622444e+004
7.013410e+002,2.466270e+004,2.024914e+004,2.024914e+004,,7.853390e+002,1.973016e+004,1.619931e+004,1.619931e+004
7.014410e+002,2.479890e+004,2.021653e+004,2.021653e+004,,7.852390e+002,1.983912e+004,1.617322e+004,1.617322e+004
7.015410e+002,2.443210e+004,2.018631e+004,2.018631e+004,,7.851390e+002,1.954568e+004,1.614905e+004,1.614905e+004
7.016410e+002,2.466090e+004,2.015424e+004,2.015424e+004,,7.850390e+002,1.972872e+004,1.612339e+004,1.612339e+004
7.017410e+002,2.426490e+004,2.012478e+004,2.012478e+004,,7.849390e+002,1.941192e+004,1.609982e+004,1.609982e+004
7.018410e+002,2.461990e+004,2.009256e+004,2.009256e+004,,7.848390e+002,1.969592e+004,1.607405e+004,1.607405e+004
7.019410e+002,2.417400e+004,2.006331e+004,2.006331e+004,,7.847390e+002,1.933920e+004,1.605065e+004,1.605065e+004
7.020410e+002,2.428500e+004,2.003305e+004,2.003305e+004,,7.846390e+002,1.942800e+004,1.602644e+004,1.602644e+004
7.021410e+002,2.429270e+004,2.000252e+004,2.000252e+004,,7.845390e+002,1.943416e+004,1.600201e+004,1.600201e+004
7.022410e+002,2.441430e+004,1.997090e+004,1.997090e+004,,7.844390e+002,1.953144e+004,1.597672e+004,1.597672e+004
7.023410e+002,2.424160e+004,1.994029e+004,1.994029e+004,,7.843390e+002,1.939328e+004,1.595223e+004,1.595223e+004
7.024410e+002,2.433890e+004,1.990876e+004,1.990876e+004,,7.842390e+002,1.947112e+004,1.592701e+004,1.592701e+004
7.025410e+002,2.425850e+004,1.987758e+004,1.987758e+004,,7.841390e+002,1.940680e+004,1.590207e+004,1.590207e+004
7.026410e+002,2.418320e+004,1.984672e+004,1.984672e+004,,7.840390e+002,1.934656e+004,1.587738e+004,1.587738e+004
7.027410e+002,2.412730e+004,1.981604e+004,1.981604e+004,,7.839390e+002,1.930184e+004,1.585283e+004,1.585283e+004
7.028410e+002,2.400260e+004,1.978603e+004,1.978603e+004,,7.838390e+002,1.920208e+004,1.582883e+004,1.582883e+004
7.029410e+002,2.416040e+004,1.975468e+004,1.975468e+004,,7.837390e+002,1.932832e+004,1.580374e+004,1.580374e+004
7.030410e+002,2.421850e+004,1.972269e+004,1.972269e+004,,7.836390e+002,1.937480e+004,1.577815e+004,1.577815e+004
7.031410e+002,2.449060e+004,1.968851e+004,1.968851e+004,,7.835390e+002,1.959248e+004,1.575081e+004,1.575081e+004
7.032410e+002,2.453940e+004,1.965374e+004,1.965374e+004,,7.834390e+002,1.963152e+004,1.572299e+004,1.572299e+004
7.033410e+002,2.451100e+004,1.961893e+004,1.961893e+004,,7.833390e+002,1.960880e+004,1.569514e+004,1.569514e+004
7.034410e+002,2.484850e+004,1.958145e+004,1.958145e+004,,7.832390e+002,1.987880e+004,1.566516e+004,1.566516e+004
7.035410e+002,2.437840e+004,1.954706e+004,1.954706e+004,,7.831390e+002,1.950272e+004,1.563765e+004,1.563765e+004
7.036410e+002,2.497750e+004,1.950814e+004,1.950814e+004,,7.830390e+002,1.998200e+004,1.560651e+004,1.560651e+004
7.037410e+002,2.498650e+004,1.946888e+004,1.946888e+004,,7.829390e+002,1.998920e+004,1.557510e+004,1.557510e+004
7.038410e+002,2.545590e+004,1.942596e+004,1.942596e+004,,7.828390e+002,2.036472e+004,1.554077e+004,1.554077e+004
7.039410e+002,2.542840e+004,1.938294e+004,1.938294e+004,,7.827390e+002,2.034272e+004,1.550635e+004,1.550635e+004
7.040410e+002,2.563820e+004,1.933811e+004,1.933811e+004,,7.826390e+002,2.051056e+004,1.547049e+004,1.547049e+004
7.041410e+002,2.583270e+004,1.929156e+004,1.929156e+004,,7.825390e+002,2.066616e+004,1.543325e+004,1.543325e+004
7.042410e+002,2.605720e+004,1.924306e+004,1.924306e+004,,7.824390e+002,2.084576e+004,1.539445e+004,1.539445e+004
7.043410e+002,2.612620e+004,1.919373e+004,1.919373e+004,,7.823390e+002,2.090096e+004,1.535498e+004,1.535498e+004
7.044410e+002,2.633880e+004,1.914252e+004,1.914252e+004,,7.822390e+002,2.107104e+004,1.531401e+004,1.531401e+004
7.045410e+002,2.682110e+004,1.908748e+004,1.908748e+004,,7.821390e+002,2.145688e+004,1.526998e+004,1.526998e+004
7.046410e+002,2.658170e+004,1.903377e+004,1.903377e+004,,7.820390e+002,2.126536e+004,1.522701e+004,1.522701e+004
7.047410e+002,2.693090e+004,1.897716e+004,1.897716e+004,,7.819390e+002,2.154472e+004,1.518173e+004,1.518173e+004
7.048410e+002,2.722820e+004,1.891802e+004,1.891802e+004,,7.818390e+002,2.178256e+004,1.513442e+004,1.513442e+004
7.049410e+002,2.734580e+004,1.885762e+004,1.885762e+004,,7.817390e+002,2.187664e+004,1.508609e+004,1.508609e+004
7.050410e+002,2.763720e+004,1.879469e+004,1.879469e+004,,7.816390e+002,2.210976e+004,1.503575e+004,1.503575e+004
7.051410e+002,2.816590e+004,1.872752e+004,1.872752e+004,,7.815390e+002,2.253272e+004,1.498202e+004,1.498202e+004
7.052410e+002,2.821150e+004,1.865955e+004,1.865955e+004,,7.814390e+002,2.256920e+004,1.492764e+004,1.492764e+004
7.053410e+002,2.819890e+004,1.859117e+004,1.859117e+004,,7.813390e+002,2.255912e+004,1.487294e+004,1.487294e+004
7.054410e+002,2.864690e+004,1.851910e+004,1.851910e+004,,7.812390e+002,2.291752e+004,1.481528e+004,1.481528e+004
7.055410e+002,2.878740e+004,1.844550e+004,1.844550e+004,,7.811390e+002,2.302992e+004,1.475640e+004,1.475640e+004
7.056410e+002,2.908770e+004,1.836922e+004,1.836922e+004,,7.810390e+002,2.327016e+004,1.469538e+004,1.469538e+004
7.057410e+002,2.921320e+004,1.829150e+004,1.829150e+004,,7.809390e+002,2.337056e+004,1.463320e+004,1.463320e+004
7.058410e+002,2.948920e+004,1.821124e+004,1.821124e+004,,7.808390e+002,2.359136e+004,1.456899e+004,1.456899e+004
7.059410e+002,2.954810e+004,1.812998e+004,1.812998e+004,,7.807390e+002,2.363848e+004,1.450399e+004,1.450399e+004
7.060410e+002,2.983150e+004,1.804611e+004,1.804611e+004,,7.806390e+002,2.386520e+004,1.443689e+004,1.443689e+004
7.061410e+002,2.982370e+004,1.796170e+004,1.796170e+004,,7.805390e+002,2.385896e+004,1.436936e+004,1.436936e+004
7.062410e+002,2.988960e+004,1.787620e+004,1.787620e+004,,7.804390e+002,2.391168e+004,1.430096e+004,1.430096e+004
7.063410e+002,2.975200e+004,1.779108e+004,1.779108e+004,,7.803390e+002,2.380160e+004,1.423287e+004,1.423287e+004
7.064410e+002,2.989820e+004,1.770431e+004,1.770431e+004,,7.802390e+002,2.391856e+004,1.416345e+004,1.416345e+004
7.065410e+002,2.972950e+004,1.761812e+004,1.761812e+004,,7.801390e+002,2.378360e+004,1.409449e+004,1.409449e+004
7.066410e+002,2.929750e+004,1.753440e+004,1.753440e+004,,7.800390e+002,2.343800e+004,1.402752e+004,1.402752e+004
7.067410e+002,2.915180e+004,1.745114e+004,1.745114e+004,,7.799390e+002,2.332144e+004,1.396091e+004,1.396091e+004
7.068410e+002,2.897500e+004,1.736854e+004,1.736854e+004,,7.798390e+002,2.318000e+004,1.389483e+004,1.389483e+004
7.069410e+002,2.844950e+004,1.728912e+004,1.728912e+004,,7.797390e+002,2.275960e+004,1.383129e+004,1.383129e+004
7.070410e+002,2.793700e+004,1.721280e+004,1.721280e+004,,7.796390e+002,2.234960e+004,1.377024e+004,1.377024e+004
7.071410e+002,2.766920e+004,1.713785e+004,1.713785e+004,,7.795390e+002,2.213536e+004,1.371028e+004,1.371028e+004
7.072410e+002,2.780290e+004,1.706141e+004,1.706141e+004,,7.794390e+002,2.224232e+004,1.364913e+004,1.364913e+004
7.073410e+002,2.685160e+004,1.699124e+004,1.699124e+004,,7.793390e+002,2.148128e+004,1.359299e+004,1.359299e+004
7.074410e+002,2.615610e+004,1.692555e+004,1.692555e+004,,7.792390e+002,2.092488e+004,1.354044e+004,1.354044e+004
7.075410e+002,2.588700e+004,1.686132e+004,1.686132e+004,,7.791390e+002,2.070960e+004,1.348906e+004,1.348906e+004
7.076410e+002,2.526040e+004,1.680112e+004,1.680112e+004,,7.790390e+002,2.020832e+004,1.344089e+004,1.344089e+004
7.077410e+002,2.514560e+004,1.674131e+004,1.674131e+004,,7.789390e+002,2.011648e+004,1.339305e+004,1.339305e+004
7.078410e+002,2.445190e+004,1.668604e+004,1.668604e+004,,7.788390e+002,1.956152e+004,1.334884e+004,1.334884e+004
7.079410e+002,2.363390e+004,1.663625e+004,1.663625e+004,,7.787390e+002,1.890712e+004,1.330900e+004,1.330900e+004
7.080410e+002,2.313190e+004,1.658969e+004,1.658969e+004,,7.786390e+002,1.850552e+004,1.327175e+004,1.327175e+004
7.081410e+002,2.280880e+004,1.654511e+004,1.654511e+004,,7.785390e+002,1.824704e+004,1.323609e+004,1.323609e+004
7.082410e+002,2.254420e+004,1.650211e+004,1.650211e+004,,7.784390e+002,1.803536e+004,1.320169e+004,1.320169e+004
7.083410e+002,2.184510e+004,1.646382e+004,1.646382e+004,,7.783390e+002,1.747608e+004,1.317105e+004,1.317105e+004
7.084410e+002,2.159980e+004,1.642701e+004,1.642701e+004,,7.782390e+002,1.727984e+004,1.314160e+004,1.314160e+004
7.085410e+002,2.107670e+004,1.639368e+004,1.639368e+004,,7.781390e+002,1.686136e+004,1.311494e+004,1.311494e+004
7.086410e+002,2.061490e+004,1.636342e+004,1.636342e+004,,7.780390e+002,1.649192e+004,1.309074e+004,1.309074e+004
7.087410e+002,2.017300e+004,1.633612e+004,1.633612e+004,,7.779390e+002,1.613840e+004,1.306889e+004,1.306889e+004
7.088410e+002,1.996030e+004,1.631014e+004,1.631014e+004,,7.778390e+002,1.596824e+004,1.304811e+004,1.304811e+004
7.089410e+002,1.976050e+004,1.628541e+004,1.628541e+004,,7.777390e+002,1.580840e+004,1.302833e+004,1.302833e+004
7.090410e+002,1.952020e+004,1.626223e+004,1.626223e+004,,7.776390e+002,1.561616e+004,1.300978e+004,1.300978e+004
7.091410e+002,1.910630e+004,1.624184e+004,1.624184e+004,,7.775390e+002,1.528504e+004,1.299347e+004,1.299347e+004
7.092410e+002,1.902690e+004,1.622188e+004,1.622188e+004,,7.774390e+002,1.522152e+004,1.297750e+004,1.297750e+004
7.093410e+002,1.899450e+004,1.620201e+004,1.620201e+004,,7.773390e+002,1.519560e+004,1.296161e+004,1.296161e+004
7.094410e+002,1.884620e+004,1.618305e+004,1.618305e+004,,7.772390e+002,1.507696e+004,1.294644e+004,1.294644e+004
7.095410e+002,1.879870e+004,1.616431e+004,1.616431e+004,,7.771390e+002,1.503896e+004,1.293145e+004,1.293145e+004
7.096410e+002,1.846170e+004,1.614784e+004,1.614784e+004,,7.770390e+002,1.476936e+004,1.291827e+004,1.291827e+004
7.097410e+002,1.836230e+004,1.613197e+004,1.613197e+004,,7.769390e+002,1.468984e+004,1.290557e+004,1.290557e+004
7.098410e+002,1.841680e+004,1.611559e+004,1.611559e+004,,7.768390e+002,1.473344e+004,1.289247e+004,1.289247e+004
7.099410e+002,1.817680e+004,1.610082e+004,1.610082e+004,,7.767390e+002,1.454144e+004,1.288065e+004,1.288065e+004
7.100410e+002,1.841070e+004,1.608426e+004,1.608426e+004,,7.766390e+002,1.472856e+004,1.286741e+004,1.286741e+004
7.101410e+002,1.843740e+004,1.606740e+004,1.606740e+004,,7.765390e+002,1.474992e+004,1.285392e+004,1.285392e+004
7.102410e+002,1.800470e+004,1.605351e+004,1.605351e+004,,7.764390e+002,1.440376e+004,1.284281e+004,1.284281e+004
7.103410e+002,1.809700e+004,1.603886e+004,1.603886e+004,,7.763390e+002,1.447760e+004,1.283109e+004,1.283109e+004
7.104410e+002,1.826380e+004,1.602292e+004,1.602292e+004,,7.762390e+002,1.461104e+004,1.281833e+004,1.281833e+004
7.105410e+002,1.786270e+004,1.600973e+004,1.600973e+004,,7.761390e+002,1.429016e+004,1.280778e+004,1.280778e+004
7.106410e+002,1.785180e+004,1.599653e+004,1.599653e+004,,7.760390e+002,1.428144e+004,1.279722e+004,1.279722e+004
7.107410e+002,1.775620e+004,1.598391e+004,1.598391e+004,,7.759390e+002,1.420496e+004,1.278713e+004,1.278713e+004
7.108410e+002,1.779830e+004,1.597091e+004,1.597091e+004,,7.758390e+002,1.423864e+004,1.277673e+004,1.277673e+004
7.109410e+002,1.782070e+004,1.595765e+004,1.595765e+004,,7.757390e+002,1.425656e+004,1.276612e+004,1.276612e+004
7.110410e+002,1.774390e+004,1.594485e+004,1.594485e+004,,7.756390e+002,1.419512e+004,1.275588e+004,1.275588e+004
7.111410e+002,1.781050e+004,1.593148e+004,1.593148e+004,,7.755390e+002,1.424840e+004,1.274518e+004,1.274518e+004
7.112410e+002,1.786010e+004,1.591765e+004,1.591765e+004,,7.754390e+002,1.428808e+004,1.273412e+004,1.273412e+004
7.113410e+002,1.772890e+004,1.590467e+004,1.590467e+004,,7.753390e+002,1.418312e+004,1.272374e+004,1.272374e+004
7.114410e+002,1.764470e+004,1.589220e+004,1.589220e+004,,7.752390e+002,1.411576e+004,1.271376e+004,1.271376e+004
7.115410e+002,1.770520e+004,1.587921e+004,1.587921e+004,,7.751390e+002,1.416416e+004,1.270336e+004,1.270336e+004
7.116410e+002,1.777060e+004,1.586565e+004,1.586565e+004,,7.750390e+002,1.421648e+004,1.269252e+004,1.269252e+004
7.117410e+002,1.764430e+004,1.585290e+004,1.585290e+004,,7.749390e+002,1.411544e+004,1.268232e+004,1.268232e+004
7.118410e+002,1.737530e+004,1.584199e+004,1.584199e+004,,7.748390e+002,1.390024e+004,1.267359e+004,1.267359e+004
7.119410e+002,1.758870e+004,1.582947e+004,1.582947e+004,,7.747390e+002,1.407096e+004,1.266358e+004,1.266358e+004
7.120410e+002,1.747220e+004,1.581769e+004,1.581769e+004,,7.746390e+002,1.397776e+004,1.265416e+004,1.265416e+004
7.121410e+002,1.761720e+004,1.580480e+004,1.580480e+004,,7.745390e+002,1.409376e+004,1.264384e+004,1.264384e+004
7.122410e+002,1.757280e+004,1.579212e+004,1.579212e+004,,7.744390e+002,1.405824e+004,1.263370e+004,1.263370e+004
7.123410e+002,1.762960e+004,1.577895e+004,1.577895e+004,,7.743390e+002,1.410368e+004,1.262316e+004,1.262316e+004
7.124410e+002,1.738670e+004,1.576743e+004,1.576743e+004,,7.742390e+002,1.390936e+004,1.261394e+004,1.261394e+004
7.125410e+002,1.722160e+004,1.575701e+004,1.575701e+004,,7.741390e+002,1.377728e+004,1.260561e+004,1.260561e+004
7.126410e+002,1.748160e+004,1.574465e+004,1.574465e+004,,7.740390e+002,1.398528e+004,1.259572e+004,1.259572e+004
7.127410e+002,1.735400e+004,1.573311e+004,1.573311e+004,,7.739390e+002,1.388320e+004,1.258649e+004,1.258649e+004
7.128410e+002,1.746870e+004,1.572067e+004,1.572067e+004,,7.738390e+002,1.397496e+004,1.257654e+004,1.257654e+004
7.129410e+002,1.714260e+004,1.571048e+004,1.571048e+004,,7.737390e+002,1.371408e+004,1.256838e+004,1.256838e+004
7.130410e+002,1.742040e+004,1.569822e+004,1.569822e+004,,7.736390e+002,1.393632e+004,1.255858e+004,1.255858e+004
7.131410e+002,1.734440e+004,1.568643e+004,1.568643e+004,,7.735390e+002,1.387552e+004,1.254914e+004,1.254914e+004
7.132410e+002,1.720570e+004,1.567554e+004,1.567554e+004,,7.734390e+002,1.376456e+004,1.254043e+004,1.254043e+004
7.133410e+002,1.737850e+004,1.566333e+004,1.566333e+004,,7.733390e+002,1.390280e+004,1.253066e+004,1.253066e+004
7.134410e+002,1.745560e+004,1.565048e+004,1.565048e+004,,7.732390e+002,1.396448e+004,1.252039e+004,1.252039e+004
7.135410e+002,1.716780e+004,1.563961e+004,1.563961e+004,,7.731390e+002,1.373424e+004,1.251169e+004,1.251169e+004
7.136410e+002,1.727640e+004,1.562788e+004,1.562788e+004,,7.730390e+002,1.382112e+004,1.250230e+004,1.250230e+004
7.137410e+002,1.723930e+004,1.561633e+004,1.561633e+004,,7.729390e+002,1.379144e+004,1.249306e+004,1.249306e+004
7.138410e+002,1.724770e+004,1.560463e+004,1.560463e+004,,7.728390e+002,1.379816e+004,1.248371e+004,1.248371e+004
7.139410e+002,1.718310e+004,1.559332e+004,1.559332e+004,,7.727390e+002,1.374648e+004,1.247466e+004,1.247466e+004
7.140410e+002,1.716780e+004,1.558204e+004,1.558204e+004,,7.726390e+002,1.373424e+004,1.246563e+004,1.246563e+004
7.141410e+002,1.701230e+004,1.557178e+004,1.557178e+004,,7.725390e+002,1.360984e+004,1.245743e+004,1.245743e+004
7.142410e+002,1.699820e+004,1.556156e+004,1.556156e+004,,7.724390e+002,1.359856e+004,1.244925e+004,1.244925e+004
7.143410e+002,1.725370e+004,1.554943e+004,1.554943e+004,,7.723390e+002,1.380296e+004,1.243955e+004,1.243955e+004
7.144410e+002,1.713490e+004,1.553807e+004,1.553807e+004,,7.722390e+002,1.370792e+004,1.243046e+004,1.243046e+004
7.145410e+002,1.715330e+004,1.552649e+004,1.552649e+004,,7.721390e+002,1.372264e+004,1.242119e+004,1.242119e+004
7.146410e+002,1.704880e+004,1.551558e+004,1.551558e+004,,7.720390e+002,1.363904e+004,1.241246e+004,1.241246e+004
7.147410e+002,1.687080e+004,1.550587e+004,1.550587e+004,,7.719390e+002,1.349664e+004,1.240469e+004,1.240469e+004
7.148410e+002,1.733640e+004,1.549275e+004,1.549275e+004,,7.718390e+002,1.386912e+004,1.239420e+004,1.239420e+004
7.149410e+002,1.698460e+004,1.548205e+004,1.548205e+004,,7.717390e+002,1.358768e+004,1.238564e+004,1.238564e+004
7.150410e+002,1.678960e+004,1.547268e+004,1.547268e+004,,7.716390e+002,1.343168e+004,1.237815e+004,1.237815e+004
7.151410e+002,1.707920e+004,1.546117e+004,1.546117e+004,,7.715390e+002,1.366336e+004,1.236893e+004,1.236893e+004
7.152410e+002,1.727100e+004,1.544820e+004,1.544820e+004,,7.714390e+002,1.381680e+004,1.235856e+004,1.235856e+004
7.153410e+002,1.720210e+004,1.543562e+004,1.543562e+004,,7.713390e+002,1.376168e+004,1.234850e+004,1.234850e+004
7.154410e+002,1.672450e+004,1.542639e+004,1.542639e+004,,7.712390e+002,1.337960e+004,1.234111e+004,1.234111e+004
7.155410e+002,1.683640e+004,1.541628e+004,1.541628e+004,,7.711390e+002,1.346912e+004,1.233302e+004,1.233302e+004
7.156410e+002,1.683720e+004,1.540610e+004,1.540610e+004,,7.710390e+002,1.346976e+004,1.232488e+004,1.232488e+004
7.157410e+002,1.662910e+004,1.539733e+004,1.539733e+004,,7.709390e+002,1.330328e+004,1.231786e+004,1.231786e+004
7.158410e+002,1.652890e+004,1.538922e+004,1.538922e+004,,7.708390e+002,1.322312e+004,1.231138e+004,1.231138e+004
7.159410e+002,1.686680e+004,1.537863e+004,1.537863e+004,,7.707390e+002,1.349344e+004,1.230290e+004,1.230290e+004
7.160410e+002,1.667890e+004,1.536931e+004,1.536931e+004,,7.706390e+002,1.334312e+004,1.229545e+004,1.229545e+004
7.161410e+002,1.661780e+004,1.536036e+004,1.536036e+004,,7.705390e+002,1.329424e+004,1.228829e+004,1.228829e+004
7.162410e+002,1.654050e+004,1.535190e+004,1.535190e+004,,7.704390e+002,1.323240e+004,1.228152e+004,1.228152e+004
7.163410e+002,1.640310e+004,1.534437e+004,1.534437e+004,,7.703390e+002,1.312248e+004,1.227549e+004,1.227549e+004
7.164410e+002,1.653650e+004,1.533582e+004,1.533582e+004,,7.702390e+002,1.322920e+004,1.226866e+004,1.226866e+004
7.165410e+002,1.643000e+004,1.532798e+004,1.532798e+004,,7.701390e+002,1.314400e+004,1.226238e+004,1.226238e+004
7.166410e+002,1.651020e+004,1.531951e+004,1.531951e+004,,7.700390e+002,1.320816e+004,1.225561e+004,1.225561e+004
7.167410e+002,1.623590e+004,1.531294e+004,1.531294e+004,,7.699390e+002,1.298872e+004,1.225035e+004,1.225035e+004
7.168410e+002,1.627710e+004,1.530603e+004,1.530603e+004,,7.698390e+002,1.302168e+004,1.224482e+004,1.224482e+004
7.169410e+002,1.641450e+004,1.529808e+004,1.529808e+004,,7.697390e+002,1.313160e+004,1.223847e+004,1.223847e+004
7.170410e+002,1.628630e+004,1.529100e+004,1.529100e+004,,7.696390e+002,1.302904e+004,1.223280e+004,1.223280e+004
7.171410e+002,1.613150e+004,1.528498e+004,1.528498e+004,,7.695390e+002,1.290520e+004,1.222798e+004,1.222798e+004
7.172410e+002,1.618900e+004,1.527850e+004,1.527850e+004,,7.694390e+002,1.295120e+004,1.222280e+004,1.222280e+004
7.173410e+002,1.600110e+004,1.527332e+004,1.527332e+004,,7.693390e+002,1.280088e+004,1.221865e+004,1.221865e+004
7.174410e+002,1.596070e+004,1.526839e+004,1.526839e+004,,7.692390e+002,1.276856e+004,1.221471e+004,1.221471e+004
7.175410e+002,1.604600e+004,1.526282e+004,1.526282e+004,,7.691390e+002,1.283680e+004,1.221025e+004,1.221025e+004
7.176410e+002,1.599500e+004,1.525757e+004,1.525757e+004,,7.690390e+002,1.279600e+004,1.220605e+004,1.220605e+004
7.177410e+002,1.576240e+004,1.525395e+004,1.525395e+004,,7.689390e+002,1.260992e+004,1.220316e+004,1.220316e+004
7.178410e+002,1.571420e+004,1.525065e+004,1.525065e+004,,7.688390e+002,1.257136e+004,1.220052e+004,1.220052e+004
7.179410e+002,1.597570e+004,1.524545e+004,1.524545e+004,,7.687390e+002,1.278056e+004,1.219636e+004,1.219636e+004
7.180410e+002,1.593370e+004,1.524052e+004,1.524052e+004,,7.686390e+002,1.274696e+004,1.219242e+004,1.219242e+004
7.181410e+002,1.577960e+004,1.523666e+004,1.523666e+004,,7.685390e+002,1.262368e+004,1.218933e+004,1.218933e+004
7.182410e+002,1.573280e+004,1.523310e+004,1.523310e+004,,7.684390e+002,1.258624e+004,1.218648e+004,1.218648e+004
7.183410e+002,1.581410e+004,1.522894e+004,1.522894e+004,,7.683390e+002,1.265128e+004,1.218315e+004,1.218315e+004
7.184410e+002,1.589060e+004,1.522419e+004,1.522419e+004,,7.682390e+002,1.271248e+004,1.217936e+004,1.217936e+004
7.185410e+002,1.579310e+004,1.522012e+004,1.522012e+004,,7.681390e+002,1.263448e+004,1.217609e+004,1.217609e+004
7.186410e+002,1.553330e+004,1.521787e+004,1.521787e+004,,7.680390e+002,1.242664e+004,1.217430e+004,1.217430e+004
7.187410e+002,1.565640e+004,1.521473e+004,1.521473e+004,,7.679390e+002,1.252512e+004,1.217178e+004,1.217178e+004
7.188410e+002,1.554440e+004,1.521237e+004,1.521237e+004,,7.678390e+002,1.243552e+004,1.216989e+004,1.216989e+004
7.189410e+002,1.592270e+004,1.520727e+004,1.520727e+004,,7.677390e+002,1.273816e+004,1.216582e+004,1.216582e+004
7.190410e+002,1.576560e+004,1.520327e+004,1.520327e+004,,7.676390e+002,1.261248e+004,1.216262e+004,1.216262e+004
7.191410e+002,1.538040e+004,1.520200e+004,1.520200e+004,,7.675390e+002,1.230432e+004,1.216160e+004,1.216160e+004
7.192410e+002,1.543350e+004,1.520034e+004,1.520034e+004,,7.674390e+002,1.234680e+004,1.216028e+004,1.216028e+004
7.193410e+002,1.535090e+004,1.519927e+004,1.519927e+004,,7.673390e+002,1.228072e+004,1.215941e+004,1.215941e+004
7.194410e+002,1.551710e+004,1.519699e+004,1.519699e+004,,7.672390e+002,1.241368e+004,1.215759e+004,1.215759e+004
7.195410e+002,1.548760e+004,1.519490e+004,1.519490e+004,,7.671390e+002,1.239008e+004,1.215592e+004,1.215592e+004
7.196410e+002,1.556550e+004,1.519225e+004,1.519225e+004,,7.670390e+002,1.245240e+004,1.215380e+004,1.215380e+004
7.197410e+002,1.541310e+004,1.519067e+004,1.519067e+004,,7.669390e+002,1.233048e+004,1.215253e+004,1.215253e+004
7.198410e+002,1.529850e+004,1.518989e+004,1.518989e+004,,7.668390e+002,1.223880e+004,1.215191e+004,1.215191e+004
7.199410e+002,1.533390e+004,1.518886e+004,1.518886e+004,,7.667390e+002,1.226712e+004,1.215109e+004,1.215109e+004
7.200410e+002,1.531440e+004,1.518796e+004,1.518796e+004,,7.666390e+002,1.225152e+004,1.215037e+004,1.215037e+004
7.201410e+002,1.544620e+004,1.518611e+004,1.518611e+004,,7.665390e+002,1.235696e+004,1.214889e+004,1.214889e+004
7.202410e+002,1.533410e+004,1.518505e+004,1.518505e+004,,7.664390e+002,1.226728e+004,1.214804e+004,1.214804e+004
7.203410e+002,1.535410e+004,1.518384e+004,1.518384e+004,,7.663390e+002,1.228328e+004,1.214707e+004,1.214707e+004
7.204410e+002,1.546540e+004,1.518182e+004,1.518182e+004,,7.662390e+002,1.237232e+004,1.214545e+004,1.214545e+004
7.205410e+002,1.541460e+004,1.518015e+004,1.518015e+004,,7.661390e+002,1.233168e+004,1.214412e+004,1.214412e+004
7.206410e+002,1.532950e+004,1.517908e+004,1.517908e+004,,7.660390e+002,1.226360e+004,1.214326e+004,1.214326e+004
7.207410e+002,1.535630e+004,1.517781e+004,1.517781e+004,,7.659390e+002,1.228504e+004,1.214225e+004,1.214225e+004
7.208410e+002,1.532110e+004,1.517678e+004,1.517678e+004,,7.658390e+002,1.225688e+004,1.214143e+004,1.214143e+004
7.209410e+002,1.528880e+004,1.517598e+004,1.517598e+004,,7.657390e+002,1.223104e+004,1.214078e+004,1.214078e+004
7.210410e+002,1.512120e+004,1.517559e+004,1.517559e+004,,7.656390e+002,1.209696e+004,1.214047e+004,1.214047e+004
7.211410e+002,1.522440e+004,1.517524e+004,1.517524e+004,,7.655390e+002,1.217952e+004,1.214019e+004,1.214019e+004
7.212410e+002,1.513050e+004,1.517493e+004,1.517493e+004,,7.654390e+002,1.210440e+004,1.213994e+004,1.213994e+004
7.213410e+002,1.518500e+004,1.517485e+004,1.517485e+004,,7.653390e+002,1.214800e+004,1.213988e+004,1.213988e+004
7.214410e+002,1.541860e+004,1.517311e+004,1.517311e+004,,7.652390e+002,1.233488e+004,1.213849e+004,1.213849e+004
7.215410e+002,1.512860e+004,1.517279e+004,1.517279e+004,,7.651390e+002,1.210288e+004,1.213823e+004,1.213823e+004
7.216410e+002,1.523120e+004,1.517237e+004,1.517237e+004,,7.650390e+002,1.218496e+004,1.213790e+004,1.213790e+004
7.217410e+002,1.541070e+004,1.517067e+004,1.517067e+004,,7.649390e+002,1.232856e+004,1.213653e+004,1.213653e+004
7.218410e+002,1.516120e+004,1.517060e+004,1.517060e+004,,7.648390e+002,1.212896e+004,1.213648e+004,1.213648e+004
7.219410e+002,1.510770e+004,1.517015e+004,1.517015e+004,,7.647390e+002,1.208616e+004,1.213612e+004,1.213612e+004
7.220410e+002,1.511510e+004,1.516977e+004,1.516977e+004,,7.646390e+002,1.209208e+004,1.213581e+004,1.213581e+004
7.221410e+002,1.501510e+004,1.516867e+004,1.516867e+004,,7.645390e+002,1.201208e+004,1.213494e+004,1.213494e+004
7.222410e+002,1.506630e+004,1.506630e+004,1.506630e+004,,7.644390e+002,1.205304e+004,1.205304e+004,1.205304e+004
7.223410e+002,1.503820e+004,1.503820e+004,1.503820e+004,,7.643390e+002,1.203056e+004,1.203056e+004,1.203056e+004
7.224410e+002,1.530780e+004,1.530780e+004,1.530780e+004,,7.642390e+002,1.224624e+004,1.224624e+004,1.224624e+004
7.225410e+002,1.521620e+004,1.521620e+004,1.521620e+004,,7.641390e+002,1.217296e+004,1.217296e+004,1.217296e+004
7.226410e+002,1.518590e+004,1.518590e+004,1.518590e+004,,7.640390e+002,1.214872e+004,1.214872e+004,1.214872e+004
7.227410e+002,1.510850e+004,1.510850e+004,1.510850e+004,,7.639390e+002,1.208680e+004,1.208680e+004,1.208680e+004
7.228410e+002,1.490490e+004,1.490490e+004,1.490490e+004,,7.638390e+002,1.192392e+004,1.192392e+004,1.192392e+004
7.229410e+002,1.500640e+004,1.500640e+004,1.500640e+004,,7.637390e+002,1.200512e+004,1.200512e+004,1.200512e+004
7.230410e+002,1.485010e+004,1.485010e+004,1.485010e+004,,7.636390e+002,1.188008e+004,1.188008e+004,1.188008e+004
7.231410e+002,1.495220e+004,1.495220e+004,1.495220e+004,,7.635390e+002,1.196176e+004,1.196176e+004,1.196176e+004
7.232410e+002,1.497240e+004,1.497240e+004,1.497240e+004,,7.634390e+002,1.197792e+004,1.197792e+004,1.197792e+004
7.233410e+002,1.505440e+004,1.505440e+004,1.505440e+004,,7.633390e+002,1.204352e+004,1.204352e+004,1.204352e+004
