"Cycle 0:Pt #001:Co2p Scan"
,Characteristic Energy eV,1.486680e+003,Acquisition Time s,1.250000e+000
Name,,
Position,,
FWHM,,
Area,,
Lineshape,,
K.E.,Counts,Background,Envelope,,B.E.,CPS,Background CPS,Envelope CPS
6.703260e+002,2.247020e+004,2.247020e+004,2.247020e+004,,8.163540e+002,1.797616e+004,1.797616e+004,1.797616e+004
6.704260e+002,2.230020e+004,2.230020e+004,2.230020e+004,,8.162540e+002,1.784016e+004,1.784016e+004,1.784016e+004
6.705260e+002,2.242550e+004,2.242550e+004,2.242550e+004,,8.161540e+002,1.794040e+004,1.794040e+004,1.794040e+004
6.706260e+002,2.208220e+004,2.208220e+004,2.208220e+004,,8.160540e+002,1.766576e+004,1.766576e+004,1.766576e+004
6.707260e+002,2.208830e+004,2.208830e+004,2.208830e+004,,8.159540e+002,1.767064e+004,1.767064e+004,1.767064e+004
6.708260e+002,2.250940e+004,2.250940e+004,2.250940e+004,,8.158540e+002,1.800752e+004,1.800752e+004,1.800752e+004
6.709260e+002,2.232780e+004,2.232780e+004,2.232780e+004,,8.157540e+002,1.786224e+004,1.786224e+004,1.786224e+004
6.710260e+002,2.238850e+004,2.238850e+004,2.238850e+004,,8.156540e+002,1.791080e+004,1.791080e+004,1.791080e+004
6.711260e+002,2.220050e+004,2.220050e+004,2.220050e+004,,8.155540e+002,1.776040e+004,1.776040e+004,1.776040e+004
6.712260e+002,2.209020e+004,2.209020e+004,2.209020e+004,,8.154540e+002,1.767216e+004,1.767216e+004,1.767216e+004
6.713260e+002,2.220020e+004,2.220020e+004,2.220020e+004,,8.153540e+002,1.776016e+004,1.776016e+004,1.776016e+004
6.714260e+002,2.211780e+004,2.211780e+004,2.211780e+004,,8.152540e+002,1.769424e+004,1.769424e+004,1.769424e+004
6.715260e+002,2.241250e+004,2.241250e+004,2.241250e+004,,8.151540e+002,1.793000e+004,1.793000e+004,1.793000e+004
6.716260e+002,2.199610e+004,2.199610e+004,2.199610e+004,,8.150540e+002,1.759688e+004,1.759688e+004,1.759688e+004
6.717260e+002,2.231560e+004,2.231560e+004,2.231560e+004,,8.149540e+002,1.785248e+004,1.785248e+004,1.785248e+004
6.718260e+002,2.213160e+004,2.213160e+004,2.213160e+004,,8.148540e+002,1.770528e+004,1.770528e+004,1.770528e+004
6.719260e+002,2.215520e+004,2.215520e+004,2.215520e+004,,8.147540e+002,1.772416e+004,1.772416e+004,1.772416e+004
6.720260e+002,2.199850e+004,2.199850e+004,2.199850e+004,,8.146540e+002,1.759880e+004,1.759880e+004,1.759880e+004
6.721260e+002,2.219680e+004,2.219680e+004,2.219680e+004,,8.145540e+002,1.775744e+004,1.775744e+004,1.775744e+004
6.722260e+002,2.220620e+004,2.220620e+004,2.220620e+004,,8.144540e+002,1.776496e+004,1.776496e+004,1.776496e+004
6.723260e+002,2.208600e+004,2.208600e+004,2.208600e+004,,8.143540e+002,1.766880e+004,1.766880e+004,1.766880e+004
6.724260e+002,2.243530e+004,2.243530e+004,2.243530e+004,,8.142540e+002,1.794824e+004,1.794824e+004,1.794824e+004
6.725260e+002,2.217950e+004,2.217950e+004,2.217950e+004,,8.141540e+002,1.774360e+004,1.774360e+004,1.774360e+004
6.726260e+002,2.218060e+004,2.218060e+004,2.218060e+004,,8.140540e+002,1.774448e+004,1.774448e+004,1.774448e+004
6.727260e+002,2.222720e+004,2.222720e+004,2.222720e+004,,8.139540e+002,1.778176e+004,1.778176e+004,1.778176e+004
6.728260e+002,2.199100e+004,2.199100e+004,2.199100e+004,,8.138540e+002,1.759280e+004,1.759280e+004,1.759280e+004
6.729260e+002,2.210260e+004,2.210260e+004,2.210260e+004,,8.137540e+002,1.768208e+004,1.768208e+004,1.768208e+004
6.730260e+002,2.193170e+004,2.193170e+004,2.193170e+004,,8.136540e+002,1.754536e+004,1.754536e+004,1.754536e+004
6.731260e+002,2.212040e+004,2.212040e+004,2.212040e+004,,8.135540e+002,1.769632e+004,1.769632e+004,1.769632e+004
6.732260e+002,2.220310e+004,2.220310e+004,2.220310e+004,,8.134540e+002,1.776248e+004,1.776248e+004,1.776248e+004
6.733260e+002,2.198160e+004,2.198160e+004,2.198160e+004,,8.133540e+002,1.758528e+004,1.758528e+004,1.758528e+004
6.734260e+002,2.202730e+004,2.202730e+004,2.202730e+004,,8.132540e+002,1.762184e+004,1.762184e+004,1.762184e+004
6.735260e+002,2.194380e+004,2.194380e+004,2.194380e+004,,8.131540e+002,1.755504e+004,1.755504e+004,1.755504e+004
6.736260e+002,2.210570e+004,2.210570e+004,2.210570e+004,,8.130540e+002,1.768456e+004,1.768456e+004,1.768456e+004
6.737260e+002,2.185980e+004,2.185980e+004,2.185980e+004,,8.129540e+002,1.748784e+004,1.748784e+004,1.748784e+004
6.738260e+002,2.198030e+004,2.198030e+004,2.198030e+004,,8.128540e+002,1.758424e+004,1.758424e+004,1.758424e+004
6.739260e+002,2.209520e+004,2.209520e+004,2.209520e+004,,8.127540e+002,1.767616e+004,1.767616e+004,1.767616e+004
6.740260e+002,2.207140e+004,2.207140e+004,2.207140e+004,,8.126540e+002,1.765712e+004,1.765712e+004,1.765712e+004
6.741260e+002,2.192600e+004,2.192600e+004,2.192600e+004,,8.125540e+002,1.754080e+004,1.754080e+004,1.754080e+004
6.742260e+002,2.200460e+004,2.200460e+004,2.200460e+004,,8.124540e+002,1.760368e+004,1.760368e+004,1.760368e+004
6.743260e+002,2.187120e+004,2.187120e+004,2.187120e+004,,8.123540e+002,1.749696e+004,1.749696e+004,1.749696e+004
6.744260e+002,2.189250e+004,2.189250e+004,2.189250e+004,,8.122540e+002,1.751400e+004,1.751400e+004,1.751400e+004
6.745260e+002,2.194720e+004,2.194720e+004,2.194720e+004,,8.121540e+002,1.755776e+004,1.755776e+004,1.755776e+004
6.746260e+002,2.187900e+004,2.187900e+004,2.187900e+004,,8.120540e+002,1.750320e+004,1.750320e+004,1.750320e+004
6.747260e+002,2.212730e+004,2.212730e+004,2.212730e+004,,8.119540e+002,1.770184e+004,1.770184e+004,1.770184e+004
6.748260e+002,2.189520e+004,2.189520e+004,2.189520e+004,,8.118540e+002,1.751616e+004,1.751616e+004,1.751616e+004
6.749260e+002,2.200700e+004,2.200700e+004,2.200700e+004,,8.117540e+002,1.760560e+004,1.760560e+004,1.760560e+004
6.750260e+002,2.193590e+004,2.193590e+004,2.193590e+004,,8.116540e+002,1.754872e+004,1.754872e+004,1.754872e+004
6.751260e+002,2.163430e+004,2.163430e+004,2.163430e+004,,8.115540e+002,1.730744e+004,1.730744e+004,1.730744e+004
6.752260e+002,2.182940e+004,2.182940e+004,2.182940e+004,,8.114540e+002,1.746352e+004,1.746352e+004,1.746352e+004
6.753260e+002,2.195790e+004,2.195790e+004,2.195790e+004,,8.113540e+002,1.756632e+004,1.756632e+004,1.756632e+004
6.754260e+002,2.175800e+004,2.175800e+004,2.175800e+004,,8.112540e+002,1.740640e+004,1.740640e+004,1.740640e+004
6.755260e+002,2.214840e+004,2.214840e+004,2.214840e+004,,8.111540e+002,1.771872e+004,1.771872e+004,1.771872e+004
6.756260e+002,2.173600e+004,2.173600e+004,2.173600e+004,,8.110540e+002,1.738880e+004,1.738880e+004,1.738880e+004
6.757260e+002,2.180800e+004,2.180800e+004,2.180800e+004,,8.109540e+002,1.744640e+004,1.744640e+004,1.744640e+004
6.758260e+002,2.171430e+004,2.171430e+004,2.171430e+004,,8.108540e+002,1.737144e+004,1.737144e+004,1.737144e+004
6.759260e+002,2.170170e+004,2.170170e+004,2.170170e+004,,8.107540e+002,1.736136e+004,1.736136e+004,1.736136e+004
6.760260e+002,2.185100e+004,2.185100e+004,2.185100e+004,,8.106540e+002,1.748080e+004,1.748080e+004,1.748080e+004
6.761260e+002,2.163620e+004,2.163620e+004,2.163620e+004,,8.105540e+002,1.730896e+004,1.730896e+004,1.730896e+004
6.762260e+002,2.202810e+004,2.202810e+004,2.202810e+004,,8.104540e+002,1.762248e+004,1.762248e+004,1.762248e+004
6.763260e+002,2.158780e+004,2.158780e+004,2.158780e+004,,8.103540e+002,1.727024e+004,1.727024e+004,1.727024e+004
6.764260e+002,2.163170e+004,2.163170e+004,2.163170e+004,,8.102540e+002,1.730536e+004,1.730536e+004,1.730536e+004
6.765260e+002,2.167910e+004,2.167910e+004,2.167910e+004,,8.101540e+002,1.734328e+004,1.734328e+004,1.734328e+004
6.766260e+002,2.153630e+004,2.153630e+004,2.153630e+004,,8.100540e+002,1.722904e+004,1.722904e+004,1.722904e+004
6.767260e+002,2.180490e+004,2.180490e+004,2.180490e+004,,8.099540e+002,1.744392e+004,1.744392e+004,1.744392e+004
6.768260e+002,2.161480e+004,2.161480e+004,2.161480e+004,,8.098540e+002,1.729184e+004,1.729184e+004,1.729184e+004
6.769260e+002,2.182620e+004,2.182620e+004,2.182620e+004,,8.097540e+002,1.746096e+004,1.746096e+004,1.746096e+004
6.770260e+002,2.151900e+004,2.151900e+004,2.151900e+004,,8.096540e+002,1.721520e+004,1.721520e+004,1.721520e+004
6.771260e+002,2.149610e+004,2.149610e+004,2.149610e+004,,8.095540e+002,1.719688e+004,1.719688e+004,1.719688e+004
6.772260e+002,2.177960e+004,2.177960e+004,2.177960e+004,,8.094540e+002,1.742368e+004,1.742368e+004,1.742368e+004
6.773260e+002,2.163360e+004,2.163360e+004,2.163360e+004,,8.093540e+002,1.730688e+004,1.730688e+004,1.730688e+004
6.774260e+002,2.193370e+004,2.193370e+004,2.193370e+004,,8.092540e+002,1.754696e+004,1.754696e+004,1.754696e+004
6.775260e+002,2.163550e+004,2.163550e+004,2.163550e+004,,8.091540e+002,1.730840e+004,1.730840e+004,1.730840e+004
6.776260e+002,2.181210e+004,2.181210e+004,2.181210e+004,,8.090540e+002,1.744968e+004,1.744968e+004,1.744968e+004
6.777260e+002,2.179600e+004,2.179600e+004,2.179600e+004,,8.089540e+002,1.743680e+004,1.743680e+004,1.743680e+004
6.778260e+002,2.140690e+004,2.140690e+004,2.140690e+004,,8.088540e+002,1.712552e+004,1.712552e+004,1.712552e+004
6.779260e+002,2.164980e+004,2.164980e+004,2.164980e+004,,8.087540e+002,1.731984e+004,1.731984e+004,1.731984e+004
6.780260e+002,2.165000e+004,2.165000e+004,2.165000e+004,,8.086540e+002,1.732000e+004,1.732000e+004,1.732000e+004
6.781260e+002,2.156760e+004,2.156760e+004,2.156760e+004,,8.085540e+002,1.725408e+004,1.725408e+004,1.725408e+004
6.782260e+002,2.190350e+004,2.190350e+004,2.190350e+004,,8.084540e+002,1.752280e+004,1.752280e+004,1.752280e+004
6.783260e+002,2.155120e+004,2.155120e+004,2.155120e+004,,8.083540e+002,1.724096e+004,1.724096e+004,1.724096e+004
6.784260e+002,2.175960e+004,2.175960e+004,2.175960e+004,,8.082540e+002,1.740768e+004,1.740768e+004,1.740768e+004
6.785260e+002,2.191620e+004,2.191620e+004,2.191620e+004,,8.081540e+002,1.753296e+004,1.753296e+004,1.753296e+004
6.786260e+002,2.198100e+004,2.198100e+004,2.198100e+004,,8.080540e+002,1.758480e+004,1.758480e+004,1.758480e+004
6.787260e+002,2.163940e+004,2.163940e+004,2.163940e+004,,8.079540e+002,1.731152e+004,1.731152e+004,1.731152e+004
6.788260e+002,2.183870e+004,2.183870e+004,2.183870e+004,,8.078540e+002,1.747096e+004,1.747096e+004,1.747096e+004
6.789260e+002,2.176830e+004,2.176830e+004,2.176830e+004,,8.077540e+002,1.741464e+004,1.741464e+004,1.741464e+004
6.790260e+002,2.199680e+004,2.199680e+004,2.199680e+004,,8.076540e+002,1.759744e+004,1.759744e+004,1.759744e+004
6.791260e+002,2.194570e+004,2.194570e+004,2.194570e+004,,8.075540e+002,1.755656e+004,1.755656e+004,1.755656e+004
6.792260e+002,2.183690e+004,2.183690e+004,2.183690e+004,,8.074540e+002,1.746952e+004,1.746952e+004,1.746952e+004
6.793260e+002,2.181790e+004,2.181790e+004,2.181790e+004,,8.073540e+002,1.745432e+004,1.745432e+004,1.745432e+004
6.794260e+002,2.222560e+004,2.222560e+004,2.222560e+004,,8.072540e+002,1.778048e+004,1.778048e+004,1.778048e+004
6.795260e+002,2.188650e+004,2.188650e+004,2.188650e+004,,8.071540e+002,1.750920e+004,1.750920e+004,1.750920e+004
6.796260e+002,2.186690e+004,2.186690e+004,2.186690e+004,,8.070540e+002,1.749352e+004,1.749352e+004,1.749352e+004
6.797260e+002,2.190270e+004,2.190270e+004,2.190270e+004,,8.069540e+002,1.752216e+004,1.752216e+004,1.752216e+004
6.798260e+002,2.187560e+004,2.187560e+004,2.187560e+004,,8.068540e+002,1.750048e+004,1.750048e+004,1.750048e+004
6.799260e+002,2.205770e+004,2.205770e+004,2.205770e+004,,8.067540e+002,1.764616e+004,1.764616e+004,1.764616e+004
6.800260e+002,2.198670e+004,2.198670e+004,2.198670e+004,,8.066540e+002,1.758936e+004,1.758936e+004,1.758936e+004
6.801260e+002,2.175820e+004,2.175820e+004,2.175820e+004,,8.065540e+002,1.740656e+004,1.740656e+004,1.740656e+004
6.802260e+002,2.240920e+004,2.240920e+004,2.240920e+004,,8.064540e+002,1.792736e+004,1.792736e+004,1.792736e+004
6.803260e+002,2.218430e+004,2.218430e+004,2.218430e+004,,8.063540e+002,1.774744e+004,1.774744e+004,1.774744e+004
6.804260e+002,2.212350e+004,2.212350e+004,2.212350e+004,,8.062540e+002,1.769880e+004,1.769880e+004,1.769880e+004
6.805260e+002,2.209060e+004,2.209060e+004,2.209060e+004,,8.061540e+002,1.767248e+004,1.767248e+004,1.767248e+004
6.806260e+002,2.221180e+004,2.221180e+004,2.221180e+004,,8.060540e+002,1.776944e+004,1.776944e+004,1.776944e+004
6.807260e+002,2.232460e+004,2.232460e+004,2.232460e+004,,8.059540e+002,1.785968e+004,1.785968e+004,1.785968e+004
6.808260e+002,2.230260e+004,2.230260e+004,2.230260e+004,,8.058540e+002,1.784208e+004,1.784208e+004,1.784208e+004
6.809260e+002,2.223610e+004,2.223610e+004,2.223610e+004,,8.057540e+002,1.778888e+004,1.778888e+004,1.778888e+004
6.810260e+002,2.245110e+004,2.245110e+004,2.245110e+004,,8.056540e+002,1.796088e+004,1.796088e+004,1.796088e+004
6.811260e+002,2.231200e+004,2.231200e+004,2.231200e+004,,8.055540e+002,1.784960e+004,1.784960e+004,1.784960e+004
6.812260e+002,2.231180e+004,2.231180e+004,2.231180e+004,,8.054540e+002,1.784944e+004,1.784944e+004,1.784944e+004
6.813260e+002,2.245320e+004,2.245320e+004,2.245320e+004,,8.053540e+002,1.796256e+004,1.796256e+004,1.796256e+004
6.814260e+002,2.292590e+004,2.292590e+004,2.292590e+004,,8.052540e+002,1.834072e+004,1.834072e+004,1.834072e+004
6.815260e+002,2.253930e+004,2.253930e+004,2.253930e+004,,8.051540e+002,1.803144e+004,1.803144e+004,1.803144e+004
6.816260e+002,2.280980e+004,2.280980e+004,2.280980e+004,,8.050540e+002,1.824784e+004,1.824784e+004,1.824784e+004
6.817260e+002,2.289580e+004,2.289580e+004,2.289580e+004,,8.049540e+002,1.831664e+004,1.831664e+004,1.831664e+004
6.818260e+002,2.268590e+004,2.268590e+004,2.268590e+004,,8.048540e+002,1.814872e+004,1.814872e+004,1.814872e+004
6.819260e+002,2.286480e+004,2.286480e+004,2.286480e+004,,8.047540e+002,1.829184e+004,1.829184e+004,1.829184e+004
6.820260e+002,2.287760e+004,2.287760e+004,2.287760e+004,,8.046540e+002,1.830208e+004,1.830208e+004,1.830208e+004
6.821260e+002,2.301910e+004,2.301910e+004,2.301910e+004,,8.045540e+002,1.841528e+004,1.841528e+004,1.841528e+004
6.822260e+002,2.315460e+004,2.315460e+004,2.315460e+004,,8.044540e+002,1.852368e+004,1.852368e+004,1.852368e+004
6.823260e+002,2.316090e+004,2.316090e+004,2.316090e+004,,8.043540e+002,1.852872e+004,1.852872e+004,1.852872e+004
6.824260e+002,2.273340e+004,2.273340e+004,2.273340e+004,,8.042540e+002,1.818672e+004,1.818672e+004,1.818672e+004
6.825260e+002,2.311770e+004,2.311770e+004,2.311770e+004,,8.041540e+002,1.849416e+004,1.849416e+004,1.849416e+004
6.826260e+002,2.344780e+004,2.344780e+004,2.344780e+004,,8.040540e+002,1.875824e+004,1.875824e+004,1.875824e+004
6.827260e+002,2.342230e+004,2.342230e+004,2.342230e+004,,8.039540e+002,1.873784e+004,1.873784e+004,1.873784e+004
6.828260e+002,2.375910e+004,2.375910e+004,2.375910e+004,,8.038540e+002,1.900728e+004,1.900728e+004,1.900728e+004
6.829260e+002,2.336080e+004,2.336080e+004,2.336080e+004,,8.037540e+002,1.868864e+004,1.868864e+004,1.868864e+004
6.830260e+002,2.345000e+004,2.345000e+004,2.345000e+004,,8.036540e+002,1.876000e+004,1.876000e+004,1.876000e+004
6.831260e+002,2.382340e+004,2.382340e+004,2.382340e+004,,8.035540e+002,1.905872e+004,1.905872e+004,1.905872e+004
6.832260e+002,2.365400e+004,2.365400e+004,2.365400e+004,,8.034540e+002,1.892320e+004,1.892320e+004,1.892320e+004
6.833260e+002,2.371410e+004,2.371410e+004,2.371410e+004,,8.033540e+002,1.897128e+004,1.897128e+004,1.897128e+004
6.834260e+002,2.358300e+004,2.358300e+004,2.358300e+004,,8.032540e+002,1.886640e+004,1.886640e+004,1.886640e+004
6.835260e+002,2.388730e+004,2.388730e+004,2.388730e+004,,8.031540e+002,1.910984e+004,1.910984e+004,1.910984e+004
6.836260e+002,2.415530e+004,2.415530e+004,2.415530e+004,,8.030540e+002,1.932424e+004,1.932424e+004,1.932424e+004
6.837260e+002,2.378760e+004,2.378760e+004,2.378760e+004,,8.029540e+002,1.903008e+004,1.903008e+004,1.903008e+004
6.838260e+002,2.384620e+004,2.384620e+004,2.384620e+004,,8.028540e+002,1.907696e+004,1.907696e+004,1.907696e+004
6.839260e+002,2.385330e+004,2.385330e+004,2.385330e+004,,8.027540e+002,1.908264e+004,1.908264e+004,1.908264e+004
6.840260e+002,2.392660e+004,2.392660e+004,2.392660e+004,,8.026540e+002,1.914128e+004,1.914128e+004,1.914128e+004
6.841260e+002,2.433950e+004,2.433950e+004,2.433950e+004,,8.025540e+002,1.947160e+004,1.947160e+004,1.947160e+004
6.842260e+002,2.422050e+004,2.422050e+004,2.422050e+004,,8.024540e+002,1.937640e+004,1.937640e+004,1.937640e+004
6.843260e+002,2.391800e+004,2.391800e+004,2.391800e+004,,8.023540e+002,1.913440e+004,1.913440e+004,1.913440e+004
6.844260e+002,2.419600e+004,2.419600e+004,2.419600e+004,,8.022540e+002,1.935680e+004,1.935680e+004,1.935680e+004
6.845260e+002,2.447120e+004,2.447120e+004,2.447120e+004,,8.021540e+002,1.957696e+004,1.957696e+004,1.957696e+004
6.846260e+002,2.435060e+004,2.435060e+004,2.435060e+004,,8.020540e+002,1.948048e+004,1.948048e+004,1.948048e+004
6.847260e+002,2.399730e+004,2.399730e+004,2.399730e+004,,8.019540e+002,1.919784e+004,1.919784e+004,1.919784e+004
6.848260e+002,2.412880e+004,2.412880e+004,2.412880e+004,,8.018540e+002,1.930304e+004,1.930304e+004,1.930304e+004
6.849260e+002,2.409100e+004,2.409100e+004,2.409100e+004,,8.017540e+002,1.927280e+004,1.927280e+004,1.927280e+004
6.850260e+002,2.420670e+004,2.420670e+004,2.420670e+004,,8.016540e+002,1.936536e+004,1.936536e+004,1.936536e+004
6.851260e+002,2.384350e+004,2.384350e+004,2.384350e+004,,8.015540e+002,1.907480e+004,1.907480e+004,1.907480e+004
6.852260e+002,2.419330e+004,2.419330e+004,2.419330e+004,,8.014540e+002,1.935464e+004,1.935464e+004,1.935464e+004
6.853260e+002,2.388570e+004,2.388570e+004,2.388570e+004,,8.013540e+002,1.910856e+004,1.910856e+004,1.910856e+004
6.854260e+002,2.372900e+004,2.372900e+004,2.372900e+004,,8.012540e+002,1.898320e+004,1.898320e+004,1.898320e+004
6.855260e+002,2.350920e+004,2.350920e+004,2.350920e+004,,8.011540e+002,1.880736e+004,1.880736e+004,1.880736e+004
6.856260e+002,2.364820e+004,2.364820e+004,2.364820e+004,,8.010540e+002,1.891856e+004,1.891856e+004,1.891856e+004
6.857260e+002,2.355090e+004,2.355090e+004,2.355090e+004,,8.009540e+002,1.884072e+004,1.884072e+004,1.884072e+004
6.858260e+002,2.338700e+004,2.338700e+004,2.338700e+004,,8.008540e+002,1.870960e+004,1.870960e+004,1.870960e+004
6.859260e+002,2.324980e+004,2.324980e+004,2.324980e+004,,8.007540e+002,1.859984e+004,1.859984e+004,1.859984e+004
6.860260e+002,2.347810e+004,2.347810e+004,2.347810e+004,,8.006540e+002,1.878248e+004,1.878248e+004,1.878248e+004
6.861260e+002,2.320550e+004,2.320550e+004,2.320550e+004,,8.005540e+002,1.856440e+004,1.856440e+004,1.856440e+004
6.862260e+002,2.276240e+004,2.276240e+004,2.276240e+004,,8.004540e+002,1.820992e+004,1.820992e+004,1.820992e+004
6.863260e+002,2.314130e+004,2.314130e+004,2.314130e+004,,8.003540e+002,1.851304e+004,1.851304e+004,1.851304e+004
6.864260e+002,2.292220e+004,2.292220e+004,2.292220e+004,,8.002540e+002,1.833776e+004,1.833776e+004,1.833776e+004
6.865260e+002,2.268320e+004,2.268320e+004,2.268320e+004,,8.001540e+002,1.814656e+004,1.814656e+004,1.814656e+004
6.866260e+002,2.284140e+004,2.284140e+004,2.284140e+004,,8.000540e+002,1.827312e+004,1.827312e+004,1.827312e+004
6.867260e+002,2.268840e+004,2.268840e+004,2.268840e+004,,7.999540e+002,1.815072e+004,1.815072e+004,1.815072e+004
6.868260e+002,2.288890e+004,2.288890e+004,2.288890e+004,,7.998540e+002,1.831112e+004,1.831112e+004,1.831112e+004
6.869260e+002,2.271640e+004,2.271640e+004,2.271640e+004,,7.997540e+002,1.817312e+004,1.817312e+004,1.817312e+004
6.870260e+002,2.256880e+004,2.256880e+004,2.256880e+004,,7.996540e+002,1.805504e+004,1.805504e+004,1.805504e+004
6.871260e+002,2.263400e+004,2.263400e+004,2.263400e+004,,7.995540e+002,1.810720e+004,1.810720e+004,1.810720e+004
6.872260e+002,2.224200e+004,2.224200e+004,2.224200e+004,,7.994540e+002,1.779360e+004,1.779360e+004,1.779360e+004
6.873260e+002,2.253270e+004,2.253270e+004,2.253270e+004,,7.993540e+002,1.802616e+004,1.802616e+004,1.802616e+004
6.874260e+002,2.252020e+004,2.252020e+004,2.252020e+004,,7.992540e+002,1.801616e+004,1.801616e+004,1.801616e+004
6.875260e+002,2.257020e+004,2.257020e+004,2.257020e+004,,7.991540e+002,1.805616e+004,1.805616e+004,1.805616e+004
6.876260e+002,2.271780e+004,2.271780e+004,2.271780e+004,,7.990540e+002,1.817424e+004,1.817424e+004,1.817424e+004
6.877260e+002,2.249940e+004,2.249940e+004,2.249940e+004,,7.989540e+002,1.799952e+004,1.799952e+004,1.799952e+004
6.878260e+002,2.259910e+004,2.259910e+004,2.259910e+004,,7.988540e+002,1.807928e+004,1.807928e+004,1.807928e+004
6.879260e+002,2.272790e+004,2.272790e+004,2.272790e+004,,7.987540e+002,1.818232e+004,1.818232e+004,1.818232e+004
6.880260e+002,2.277250e+004,2.277250e+004,2.277250e+004,,7.986540e+002,1.821800e+004,1.821800e+004,1.821800e+004
6.881260e+002,2.294560e+004,2.294560e+004,2.294560e+004,,7.985540e+002,1.835648e+004,1.835648e+004,1.835648e+004
6.882260e+002,2.300390e+004,2.300390e+004,2.300390e+004,,7.984540e+002,1.840312e+004,1.840312e+004,1.840312e+004
6.883260e+002,2.307610e+004,2.307610e+004,2.307610e+004,,7.983540e+002,1.846088e+004,1.846088e+004,1.846088e+004
6.884260e+002,2.319800e+004,2.319800e+004,2.319800e+004,,7.982540e+002,1.855840e+004,1.855840e+004,1.855840e+004
6.885260e+002,2.301530e+004,2.301530e+004,2.301530e+004,,7.981540e+002,1.841224e+004,1.841224e+004,1.841224e+004
6.886260e+002,2.345900e+004,2.345900e+004,2.345900e+004,,7.980540e+002,1.876720e+004,1.876720e+004,1.876720e+004
6.887260e+002,2.369990e+004,2.369990e+004,2.369990e+004,,7.979540e+002,1.895992e+004,1.895992e+004,1.895992e+004
6.888260e+002,2.369130e+004,2.369130e+004,2.369130e+004,,7.978540e+002,1.895304e+004,1.895304e+004,1.895304e+004
6.889260e+002,2.367870e+004,2.367870e+004,2.367870e+004,,7.977540e+002,1.894296e+004,1.894296e+004,1.894296e+004
6.890260e+002,2.391380e+004,2.391380e+004,2.391380e+004,,7.976540e+002,1.913104e+004,1.913104e+004,1.913104e+004
6.891260e+002,2.431550e+004,2.431550e+004,2.431550e+004,,7.975540e+002,1.945240e+004,1.945240e+004,1.945240e+004
6.892260e+002,2.420280e+004,2.420280e+004,2.420280e+004,,7.974540e+002,1.936224e+004,1.936224e+004,1.936224e+004
6.893260e+002,2.444570e+004,2.444570e+004,2.444570e+004,,7.973540e+002,1.955656e+004,1.955656e+004,1.955656e+004
6.894260e+002,2.441540e+004,2.441540e+004,2.441540e+004,,7.972540e+002,1.953232e+004,1.953232e+004,1.953232e+004
6.895260e+002,2.459580e+004,2.459580e+004,2.459580e+004,,7.971540e+002,1.967664e+004,1.967664e+004,1.967664e+004
6.896260e+002,2.453110e+004,2.453110e+004,2.453110e+004,,7.970540e+002,1.962488e+004,1.962488e+004,1.962488e+004
6.897260e+002,2.509390e+004,2.509390e+004,2.509390e+004,,7.969540e+002,2.007512e+004,2.007512e+004,2.007512e+004
6.898260e+002,2.474430e+004,2.474430e+004,2.474430e+004,,7.968540e+002,1.979544e+004,1.979544e+004,1.979544e+004
6.899260e+002,2.534560e+004,2.534560e+004,2.534560e+004,,7.967540e+002,2.027648e+004,2.027648e+004,2.027648e+004
6.900260e+002,2.526280e+004,2.526280e+004,2.526280e+004,,7.966540e+002,2.021024e+004,2.021024e+004,2.021024e+004
6.901260e+002,2.530040e+004,2.530040e+004,2.530040e+004,,7.965540e+002,2.024032e+004,2.024032e+004,2.024032e+004
6.902260e+002,2.555800e+004,2.555800e+004,2.555800e+004,,7.964540e+002,2.044640e+004,2.044640e+004,2.044640e+004
6.903260e+002,2.558890e+004,2.558890e+004,2.558890e+004,,7.963540e+002,2.047112e+004,2.047112e+004,2.047112e+004
6.904260e+002,2.527010e+004,2.527010e+004,2.527010e+004,,7.962540e+002,2.021608e+004,2.021608e+004,2.021608e+004
6.905260e+002,2.563180e+004,2.563180e+004,2.563180e+004,,7.961540e+002,2.050544e+004,2.050544e+004,2.050544e+004
6.906260e+002,2.535260e+004,2.535260e+004,2.535260e+004,,7.960540e+002,2.028208e+004,2.028208e+004,2.028208e+004
6.907260e+002,2.538440e+004,2.538440e+004,2.538440e+004,,7.959540e+002,2.030752e+004,2.030752e+004,2.030752e+004
6.908260e+002,2.506820e+004,2.506820e+004,2.506820e+004,,7.958540e+002,2.005456e+004,2.005456e+004,2.005456e+004
6.909260e+002,2.513380e+004,2.513380e+004,2.513380e+004,,7.957540e+002,2.010704e+004,2.010704e+004,2.010704e+004
6.910260e+002,2.504080e+004,2.504080e+004,2.504080e+004,,7.956540e+002,2.003264e+004,2.003264e+004,2.003264e+004
6.911260e+002,2.508480e+004,2.508480e+004,2.508480e+004,,7.955540e+002,2.006784e+004,2.006784e+004,2.006784e+004
6.912260e+002,2.501950e+004,2.501950e+004,2.501950e+004,,7.954540e+002,2.001560e+004,2.001560e+004,2.001560e+004
6.913260e+002,2.466210e+004,2.466210e+004,2.466210e+004,,7.953540e+002,1.972968e+004,1.972968e+004,1.972968e+004
6.914260e+002,2.423150e+004,2.423150e+004,2.423150e+004,,7.952540e+002,1.938520e+004,1.938520e+004,1.938520e+004
6.915260e+002,2.456130e+004,2.456130e+004,2.456130e+004,,7.951540e+002,1.964904e+004,1.964904e+004,1.964904e+004
6.916260e+002,2.403250e+004,2.403250e+004,2.403250e+004,,7.950540e+002,1.922600e+004,1.922600e+004,1.922600e+004
6.917260e+002,2.365340e+004,2.365340e+004,2.365340e+004,,7.949540e+002,1.892272e+004,1.892272e+004,1.892272e+004
6.918260e+002,2.357630e+004,2.357630e+004,2.357630e+004,,7.948540e+002,1.886104e+004,1.886104e+004,1.886104e+004
6.919260e+002,2.304470e+004,2.304470e+004,2.304470e+004,,7.947540e+002,1.843576e+004,1.843576e+004,1.843576e+004
6.920260e+002,2.327260e+004,2.327260e+004,2.327260e+004,,7.946540e+002,1.861808e+004,1.861808e+004,1.861808e+004
6.921260e+002,2.272260e+004,2.272260e+004,2.272260e+004,,7.945540e+002,1.817808e+004,1.817808e+004,1.817808e+004
6.922260e+002,2.254060e+004,2.254060e+004,2.254060e+004,,7.944540e+002,1.803248e+004,1.803248e+004,1.803248e+004
6.923260e+002,2.214090e+004,2.214090e+004,2.214090e+004,,7.943540e+002,1.771272e+004,1.771272e+004,1.771272e+004
6.924260e+002,2.217400e+004,2.217400e+004,2.217400e+004,,7.942540e+002,1.773920e+004,1.773920e+004,1.773920e+004
6.925260e+002,2.183730e+004,2.183730e+004,2.183730e+004,,7.941540e+002,1.746984e+004,1.746984e+004,1.746984e+004
6.926260e+002,2.168420e+004,2.168420e+004,2.168420e+004,,7.940540e+002,1.734736e+004,1.734736e+004,1.734736e+004
6.927260e+002,2.136670e+004,2.136670e+004,2.136670e+004,,7.939540e+002,1.709336e+004,1.709336e+004,1.709336e+004
6.928260e+002,2.121510e+004,2.121510e+004,2.121510e+004,,7.938540e+002,1.697208e+004,1.697208e+004,1.697208e+004
6.929260e+002,2.092190e+004,2.092190e+004,2.092190e+004,,7.937540e+002,1.673752e+004,1.673752e+004,1.673752e+004
6.930260e+002,2.076410e+004,2.076410e+004,2.076410e+004,,7.936540e+002,1.661128e+004,1.661128e+004,1.661128e+004
6.931260e+002,2.074850e+004,2.074850e+004,2.074850e+004,,7.935540e+002,1.659880e+004,1.659880e+004,1.659880e+004
6.932260e+002,2.054550e+004,2.054550e+004,2.054550e+004,,7.934540e+002,1.643640e+004,1.643640e+004,1.643640e+004
6.933260e+002,2.052270e+004,2.052270e+004,2.052270e+004,,7.933540e+002,1.641816e+004,1.641816e+004,1.641816e+004
6.934260e+002,2.030180e+004,2.030180e+004,2.030180e+004,,7.932540e+002,1.624144e+004,1.624144e+004,1.624144e+004
6.935260e+002,2.035650e+004,2.035650e+004,2.035650e+004,,7.931540e+002,1.628520e+004,1.628520e+004,1.628520e+004
6.936260e+002,2.036320e+004,2.036320e+004,2.036320e+004,,7.930540e+002,1.629056e+004,1.629056e+004,1.629056e+004
6.937260e+002,1.993640e+004,1.993640e+004,1.993640e+004,,7.929540e+002,1.594912e+004,1.594912e+004,1.594912e+004
6.938260e+002,1.999080e+004,1.999080e+004,1.999080e+004,,7.928540e+002,1.599264e+004,1.599264e+004,1.599264e+004
6.939260e+002,2.002630e+004,2.002630e+004,2.002630e+004,,7.927540e+002,1.602104e+004,1.602104e+004,1.602104e+004
6.940260e+002,2.000210e+004,2.000210e+004,2.000210e+004,,7.926540e+002,1.600168e+004,1.600168e+004,1.600168e+004
6.941260e+002,1.974260e+004,1.974260e+004,1.974260e+004,,7.925540e+002,1.579408e+004,1.579408e+004,1.579408e+004
6.942260e+002,1.989350e+004,1.989350e+004,1.989350e+004,,7.924540e+002,1.591480e+004,1.591480e+004,1.591480e+004
6.943260e+002,2.002800e+004,1.992030e+004,1.992030e+004,,7.923540e+002,1.602240e+004,1.593624e+004,1.593624e+004
6.944260e+002,2.009580e+004,1.991913e+004,1.991913e+004,,7.922540e+002,1.607664e+004,1.593530e+004,1.593530e+004
6.945260e+002,1.977580e+004,1.991818e+004,1.991818e+004,,7.921540e+002,1.582064e+004,1.593454e+004,1.593454e+004
6.946260e+002,1.990140e+004,1.991807e+004,1.991807e+004,,7.920540e+002,1.592112e+004,1.593446e+004,1.593446e+004
6.947260e+002,1.979890e+004,1.991728e+004,1.991728e+004,,7.919540e+002,1.583912e+004,1.593383e+004,1.593383e+004
6.948260e+002,1.987600e+004,1.991701e+004,1.991701e+004,,7.918540e+002,1.590080e+004,1.593361e+004,1.593361e+004
6.949260e+002,1.987560e+004,1.991674e+004,1.991674e+004,,7.917540e+002,1.590048e+004,1.593339e+004,1.593339e+004
6.950260e+002,2.023230e+004,1.991462e+004,1.991462e+004,,7.916540e+002,1.618584e+004,1.593170e+004,1.593170e+004
6.951260e+002,2.017610e+004,1.991287e+004,1.991287e+004,,7.915540e+002,1.614088e+004,1.593030e+004,1.593030e+004
6.952260e+002,1.983830e+004,1.991238e+004,1.991238e+004,,7.914540e+002,1.587064e+004,1.592991e+004,1.592991e+004
6.953260e+002,1.990280e+004,1.991232e+004,1.991232e+004,,7.913540e+002,1.592224e+004,1.592986e+004,1.592986e+004
6.954260e+002,2.016490e+004,1.991063e+004,1.991063e+004,,7.912540e+002,1.613192e+004,1.592850e+004,1.592850e+004
6.955260e+002,2.028090e+004,1.990815e+004,1.990815e+004,,7.911540e+002,1.622472e+004,1.592652e+004,1.592652e+004
6.956260e+002,2.034430e+004,1.990523e+004,1.990523e+004,,7.910540e+002,1.627544e+004,1.592419e+004,1.592419e+004
6.957260e+002,2.034460e+004,1.990229e+004,1.990229e+004,,7.909540e+002,1.627568e+004,1.592183e+004,1.592183e+004
6.958260e+002,2.046330e+004,1.989854e+004,1.989854e+004,,7.908540e+002,1.637064e+004,1.591883e+004,1.591883e+004
6.959260e+002,2.075980e+004,1.989277e+004,1.989277e+004,,7.907540e+002,1.660784e+004,1.591422e+004,1.591422e+004
6.960260e+002,2.029280e+004,1.989009e+004,1.989009e+004,,7.906540e+002,1.623424e+004,1.591208e+004,1.591208e+004
6.961260e+002,2.065960e+004,1.988494e+004,1.988494e+004,,7.905540e+002,1.652768e+004,1.590796e+004,1.590796e+004
6.962260e+002,2.082280e+004,1.987867e+004,1.987867e+004,,7.904540e+002,1.665824e+004,1.590293e+004,1.590293e+004
6.963260e+002,2.058520e+004,1.987394e+004,1.987394e+004,,7.903540e+002,1.646816e+004,1.589915e+004,1.589915e+004
6.964260e+002,2.076130e+004,1.986800e+004,1.986800e+004,,7.902540e+002,1.660904e+004,1.589440e+004,1.589440e+004
6.965260e+002,2.058970e+004,1.986317e+004,1.986317e+004,,7.901540e+002,1.647176e+004,1.589054e+004,1.589054e+004
6.966260e+002,2.083310e+004,1.985668e+004,1.985668e+004,,7.900540e+002,1.666648e+004,1.588534e+004,1.588534e+004
6.967260e+002,2.060210e+004,1.985169e+004,1.985169e+004,,7.899540e+002,1.648168e+004,1.588135e+004,1.588135e+004
6.968260e+002,2.073640e+004,1.984577e+004,1.984577e+004,,7.898540e+002,1.658912e+004,1.587661e+004,1.587661e+004
6.969260e+002,2.103460e+004,1.983781e+004,1.983781e+004,,7.897540e+002,1.682768e+004,1.587025e+004,1.587025e+004
6.970260e+002,2.100530e+004,1.983000e+004,1.983000e+004,,7.896540e+002,1.680424e+004,1.586400e+004,1.586400e+004
6.971260e+002,2.084730e+004,1.982319e+004,1.982319e+004,,7.895540e+002,1.667784e+004,1.585855e+004,1.585855e+004
6.972260e+002,2.114620e+004,1.981433e+004,1.981433e+004,,7.894540e+002,1.691696e+004,1.585147e+004,1.585147e+004
6.973260e+002,2.127290e+004,1.980457e+004,1.980457e+004,,7.893540e+002,1.701832e+004,1.584366e+004,1.584366e+004
6.974260e+002,2.148070e+004,1.979335e+004,1.979335e+004,,7.892540e+002,1.718456e+004,1.583468e+004,1.583468e+004
6.975260e+002,2.136290e+004,1.978285e+004,1.978285e+004,,7.891540e+002,1.709032e+004,1.582628e+004,1.582628e+004
6.976260e+002,2.146380e+004,1.977160e+004,1.977160e+004,,7.890540e+002,1.717104e+004,1.581728e+004,1.581728e+004
6.977260e+002,2.165570e+004,1.975899e+004,1.975899e+004,,7.889540e+002,1.732456e+004,1.580719e+004,1.580719e+004
6.978260e+002,2.165080e+004,1.974633e+004,1.974633e+004,,7.888540e+002,1.732064e+004,1.579706e+004,1.579706e+004
6.979260e+002,2.165370e+004,1.973356e+004,1.973356e+004,,7.887540e+002,1.732296e+004,1.578685e+004,1.578685e+004
6.980260e+002,2.170870e+004,1.972034e+004,1.972034e+004,,7.886540e+002,1.736696e+004,1.577627e+004,1.577627e+004
6.981260e+002,2.201040e+004,1.970501e+004,1.970501e+004,,7.885540e+002,1.760832e+004,1.576401e+004,1.576401e+004
6.982260e+002,2.196650e+004,1.968988e+004,1.968988e+004,,7.884540e+002,1.757320e+004,1.575190e+004,1.575190e+004
6.983260e+002,2.206140e+004,1.967401e+004,1.967401e+004,,7.883540e+002,1.764912e+004,1.573921e+004,1.573921e+004
6.984260e+002,2.224530e+004,1.965680e+004,1.965680e+004,,7.882540e+002,1.779624e+004,1.572544e+004,1.572544e+004
6.985260e+002,2.240060e+004,1.963843e+004,1.963843e+004,,7.881540e+002,1.792048e+004,1.571075e+004,1.571075e+004
6.986260e+002,2.226830e+004,1.962083e+004,1.962083e+004,,7.880540e+002,1.781464e+004,1.569667e+004,1.569667e+004
6.987260e+002,2.221130e+004,1.960349e+004,1.960349e+004,,7.879540e+002,1.776904e+004,1.568280e+004,1.568280e+004
6.988260e+002,2.245260e+004,1.958443e+004,1.958443e+004,,7.878540e+002,1.796208e+004,1.566754e+004,1.566754e+004
6.989260e+002,2.279470e+004,1.956294e+004,1.956294e+004,,7.877540e+002,1.823576e+004,1.565035e+004,1.565035e+004
6.990260e+002,2.289550e+004,1.954064e+004,1.954064e+004,,7.876540e+002,1.831640e+004,1.563251e+004,1.563251e+004
6.991260e+002,2.285250e+004,1.951847e+004,1.951847e+004,,7.875540e+002,1.828200e+004,1.561478e+004,1.561478e+004
6.992260e+002,2.306880e+004,1.949471e+004,1.949471e+004,,7.874540e+002,1.845504e+004,1.559577e+004,1.559577e+004
6.993260e+002,2.326110e+004,1.946950e+004,1.946950e+004,,7.873540e+002,1.860888e+004,1.557560e+004,1.557560e+004
6.994260e+002,2.318750e+004,1.944462e+004,1.944462e+004,,7.872540e+002,1.855000e+004,1.555569e+004,1.555569e+004
6.995260e+002,2.341590e+004,1.941804e+004,1.941804e+004,,7.871540e+002,1.873272e+004,1.553443e+004,1.553443e+004
6.996260e+002,2.308380e+004,1.939350e+004,1.939350e+004,,7.870540e+002,1.846704e+004,1.551480e+004,1.551480e+004
6.997260e+002,2.348650e+004,1.936611e+004,1.936611e+004,,7.869540e+002,1.878920e+004,1.549289e+004,1.549289e+004
6.998260e+002,2.334970e+004,1.933945e+004,1.933945e+004,,7.868540e+002,1.867976e+004,1.547156e+004,1.547156e+004
6.999260e+002,2.345760e+004,1.931189e+004,1.931189e+004,,7.867540e+002,1.876608e+004,1.544951e+004,1.544951e+004
7.000260e+002,2.368530e+004,1.928262e+004,1.928262e+004,,7.866540e+002,1.894824e+004,1.542609e+004,1.542609e+004
7.001260e+002,2.381350e+004,1.925229e+004,1.925229e+004,,7.865540e+002,1.905080e+004,1.540183e+004,1.540183e+004
7.002260e+002,2.376970e+004,1.922206e+004,1.922206e+004,,7.864540e+002,1.901576e+004,1.537765e+004,1.537765e+004
7.003260e+002,2.357650e+004,1.919291e+004,1.919291e+004,,7.863540e+002,1.886120e+004,1.535433e+004,1.535433e+004
7.004260e+002,2.398730e+004,1.916082e+004,1.916082e+004,,7.862540e+002,1.918984e+004,1.532866e+004,1.532866e+004
7.005260e+002,2.401270e+004,1.912835e+004,1.912835e+004,,7.861540e+002,1.921016e+004,1.530268e+004,1.530268e+004
7.006260e+002,2.390480e+004,1.909638e+004,1.909638e+004,,7.860540e+002,1.912384e+004,1.527711e+004,1.527711e+004
7.007260e+002,2.385510e+004,1.906453e+004,1.906453e+004,,7.859540e+002,1.908408e+004,1.525163e+004,1.525163e+004
7.008260e+002,2.408620e+004,1.903093e+004,1.903093e+004,,7.858540e+002,1.926896e+004,1.522474e+004,1.522474e+004
7.009260e+002,2.415540e+004,1.899663e+004,1.899663e+004,,7.857540e+002,1.932432e+004,1.519730e+004,1.519730e+004
7.010260e+002,2.410260e+004,1.896245e+004,1.896245e+004,,7.856540e+002,1.928208e+004,1.516996e+004,1.516996e+004
7.011260e+002,2.393050e+004,1.892920e+004,1.892920e+004,,7.855540e+002,1.914440e+004,1.514336e+004,1.514336e+004
7.012260e+002,2.409420e+004,1.889464e+004,1.889464e+004,,7.854540e+002,1.927536e+004,1.511571e+004,1.511571e+004
7.013260e+002,2.381820e+004,1.886168e+004,1.886168e+004,,7.853540e+002,1.905456e+004,1.508935e+004,1.508935e+004
7.014260e+002,2.392140e+004,1.882782e+004,1.882782e+004,,7.852540e+002,1.913712e+004,1.506226e+004,1.506226e+004
7.015260e+002,2.372600e+004,1.879504e+004,1.879504e+004,,7.851540e+002,1.898080e+004,1.503603e+004,1.503603e+004
7.016260e+002,2.362970e+004,1.876268e+004,1.876268e+004,,7.850540e+002,1.890376e+004,1.501014e+004,1.501014e+004
7.017260e+002,2.371550e+004,1.872953e+004,1.872953e+004,,7.849540e+002,1.897240e+004,1.498362e+004,1.498362e+004
7.018260e+002,2.346880e+004,1.869781e+004,1.869781e+004,,7.848540e+002,1.877504e+004,1.495825e+004,1.495825e+004
7.019260e+002,2.362570e+004,1.866483e+004,1.866483e+004,,7.847540e+002,1.890056e+004,1.493186e+004,1.493186e+004
7.020260e+002,2.336940e+004,1.863334e+004,1.863334e+004,,7.846540e+002,1.869552e+004,1.490667e+004,1.490667e+004
7.021260e+002,2.335760e+004,1.860172e+004,1.860172e+004,,7.845540e+002,1.868608e+004,1.488138e+004,1.488138e+004
7.022260e+002,2.316970e+004,1.857115e+004,1.857115e+004,,7.844540e+002,1.853576e+004,1.485692e+004,1.485692e+004
7.023260e+002,2.345180e+004,1.853849e+004,1.853849e+004,,7.843540e+002,1.876144e+004,1.483079e+004,1.483079e+004
7.024260e+002,2.323370e+004,1.850706e+004,1.850706e+004,,7.842540e+002,1.858696e+004,1.480565e+004,1.480565e+004
7.025260e+002,2.302590e+004,1.847682e+004,1.847682e+004,,7.841540e+002,1.842072e+004,1.478145e+004,1.478145e+004
7.026260e+002,2.322270e+004,1.844506e+004,1.844506e+004,,7.840540e+002,1.857816e+004,1.475604e+004,1.475604e+004
7.027260e+002,2.349350e+004,1.841127e+004,1.841127e+004,,7.839540e+002,1.879480e+004,1.472901e+004,1.472901e+004
7.028260e+002,2.346090e+004,1.837747e+004,1.837747e+004,,7.838540e+002,1.876872e+004,1.470198e+004,1.470198e+004
7.029260e+002,2.352920e+004,1.834299e+004,1.834299e+004,,7.837540e+002,1.882336e+004,1.467439e+004,1.467439e+004
7.030260e+002,2.338690e+004,1.830923e+004,1.830923e+004,,7.836540e+002,1.870952e+004,1.464739e+004,1.464739e+004
7.031260e+002,2.348760e+004,1.827458e+004,1.827458e+004,,7.835540e+002,1.879008e+004,1.461966e+004,1.461966e+004
7.032260e+002,2.394390e+004,1.823663e+004,1.823663e+004,,7.834540e+002,1.915512e+004,1.458930e+004,1.458930e+004
7.033260e+002,2.364840e+004,1.820041e+004,1.820041e+004,,7.833540e+002,1.891872e+004,1.456033e+004,1.456033e+004
7.034260e+002,2.409020e+004,1.816099e+004,1.816099e+004,,7.832540e+002,1.927216e+004,1.452879e+004,1.452879e+004
7.035260e+002,2.418210e+004,1.812069e+004,1.812069e+004,,7.831540e+002,1.934568e+004,1.449656e+004,1.449656e+004
7.036260e+002,2.411680e+004,1.808056e+004,1.808056e+004,,7.830540e+002,1.929344e+004,1.446445e+004,1.446445e+004
7.037260e+002,2.424010e+004,1.803934e+004,1.803934e+004,,7.829540e+002,1.939208e+004,1.443147e+004,1.443147e+004
7.038260e+002,2.447670e+004,1.799625e+004,1.799625e+004,,7.828540e+002,1.958136e+004,1.439700e+004,1.439700e+004
7.039260e+002,2.487180e+004,1.795024e+004,1.795024e+004,,7.827540e+002,1.989744e+004,1.436019e+004,1.436019e+004
7.040260e+002,2.491640e+004,1.790361e+004,1.790361e+004,,7.826540e+002,1.993312e+004,1.432289e+004,1.432289e+004
7.041260e+002,2.517770e+004,1.785493e+004,1.785493e+004,,7.825540e+002,2.014216e+004,1.428394e+004,1.428394e+004
7.042260e+002,2.539010e+004,1.780450e+004,1.780450e+004,,7.824540e+002,2.031208e+004,1.424360e+004,1.424360e+004
7.043260e+002,2.550980e+004,1.775293e+004,1.775293e+004,,7.823540e+002,2.040784e+004,1.420234e+004,1.420234e+004
7.044260e+002,2.582240e+004,1.769892e+004,1.769892e+004,,7.822540e+002,2.065792e+004,1.415914e+004,1.415914e+004
7.045260e+002,2.606530e+004,1.764293e+004,1.764293e+004,,7.821540e+002,2.085224e+004,1.411434e+004,1.411434e+004
7.046260e+002,2.632340e+004,1.758483e+004,1.758483e+004,,7.820540e+002,2.105872e+004,1.406786e+004,1.406786e+004
7.047260e+002,2.654420e+004,1.752487e+004,1.752487e+004,,7.819540e+002,2.123536e+004,1.401989e+004,1.401989e+004
7.048260e+002,2.671640e+004,1.746335e+004,1.746335e+004,,7.818540e+002,2.137312e+004,1.397068e+004,1.397068e+004
7.049260e+002,2.707270e+004,1.739903e+004,1.739903e+004,,7.817540e+002,2.165816e+004,1.391923e+004,1.391923e+004
7.050260e+002,2.736930e+004,1.733231e+004,1.733231e+004,,7.816540e+002,2.189544e+004,1.386584e+004,1.386584e+004
7.051260e+002,2.764960e+004,1.726325e+004,1.726325e+004,,7.815540e+002,2.211968e+004,1.381060e+004,1.381060e+004
7.052260e+002,2.790330e+004,1.719204e+004,1.719204e+004,,7.814540e+002,2.232264e+004,1.375363e+004,1.375363e+004
7.053260e+002,2.837180e+004,1.711722e+004,1.711722e+004,,7.813540e+002,2.269744e+004,1.369377e+004,1.369377e+004
7.054260e+002,2.855010e+004,1.704070e+004,1.704070e+004,,7.812540e+002,2.284008e+004,1.363256e+004,1.363256e+004
7.055260e+002,2.874280e+004,1.696238e+004,1.696238e+004,,7.811540e+002,2.299424e+004,1.356990e+004,1.356990e+004
7.056260e+002,2.916140e+004,1.688073e+004,1.688073e+004,,7.810540e+002,2.332912e+004,1.350459e+004,1.350459e+004
7.057260e+002,2.901210e+004,1.679954e+004,1.679954e+004,,7.809540e+002,2.320968e+004,1.343963e+004,1.343963e+004
7.058260e+002,2.946900e+004,1.671475e+004,1.671475e+004,,7.808540e+002,2.357520e+004,1.337180e+004,1.337180e+004
7.059260e+002,2.937770e+004,1.662999e+004,1.662999e+004,,7.807540e+002,2.350216e+004,1.330400e+004,1.330400e+004
7.060260e+002,2.932380e+004,1.654504e+004,1.654504e+004,,7.806540e+002,2.345904e+004,1.323603e+004,1.323603e+004
7.061260e+002,2.975940e+004,1.645660e+004,1.645660e+004,,7.805540e+002,2.380752e+004,1.316528e+004,1.316528e+004
7.062260e+002,2.975420e+004,1.636760e+004,1.636760e+004,,7.804540e+002,2.380336e+004,1.309408e+004,1.309408e+004
7.063260e+002,2.947550e+004,1.627987e+004,1.627987e+004,,7.803540e+002,2.358040e+004,1.302389e+004,1.302389e+004
7.064260e+002,2.963530e+004,1.619048e+004,1.619048e+004,,7.802540e+002,2.370824e+004,1.295239e+004,1.295239e+004
7.065260e+002,2.927840e+004,1.610289e+004,1.610289e+004,,7.801540e+002,2.342272e+004,1.288231e+004,1.288231e+004
7.066260e+002,2.886010e+004,1.601751e+004,1.601751e+004,,7.800540e+002,2.308808e+004,1.281400e+004,1.281400e+004
7.067260e+002,2.862300e+004,1.593314e+004,1.593314e+004,,7.799540e+002,2.289840e+004,1.274651e+004,1.274651e+004
7.068260e+002,2.863350e+004,1.584814e+004,1.584814e+004,,7.798540e+002,2.290680e+004,1.267851e+004,1.267851e+004
7.069260e+002,2.797650e+004,1.576696e+004,1.576696e+004,,7.797540e+002,2.238120e+004,1.261357e+004,1.261357e+004
7.070260e+002,2.760520e+004,1.568773e+004,1.568773e+004,,7.796540e+002,2.208416e+004,1.255019e+004,1.255019e+004
7.071260e+002,2.711850e+004,1.561123e+004,1.561123e+004,,7.795540e+002,2.169480e+004,1.248898e+004,1.248898e+004
7.072260e+002,2.661590e+004,1.553758e+004,1.553758e+004,,7.794540e+002,2.129272e+004,1.243006e+004,1.243006e+004
7.073260e+002,2.570490e+004,1.546953e+004,1.546953e+004,,7.793540e+002,2.056392e+004,1.237562e+004,1.237562e+004
7.074260e+002,2.539780e+004,1.540308e+004,1.540308e+004,,7.792540e+002,2.031824e+004,1.232246e+004,1.232246e+004
7.075260e+002,2.500350e+004,1.533883e+004,1.533883e+004,,7.791540e+002,2.000280e+004,1.227106e+004,1.227106e+004
7.076260e+002,2.403010e+004,1.528066e+004,1.528066e+004,,7.790540e+002,1.922408e+004,1.222453e+004,1.222453e+004
7.077260e+002,2.342970e+004,1.522612e+004,1.522612e+004,,7.789540e+002,1.874376e+004,1.218089e+004,1.218089e+004
7.078260e+002,2.288120e+004,1.517488e+004,1.517488e+004,,7.788540e+002,1.830496e+004,1.213991e+004,1.213991e+004
7.079260e+002,2.250170e+004,1.512585e+004,1.512585e+004,,7.787540e+002,1.800136e+004,1.210068e+004,1.210068e+004
7.080260e+002,2.148710e+004,1.508327e+004,1.508327e+004,,7.786540e+002,1.718968e+004,1.206662e+004,1.206662e+004
7.081260e+002,2.144670e+004,1.504068e+004,1.504068e+004,,7.785540e+002,1.715736e+004,1.203255e+004,1.203255e+004
7.082260e+002,2.074210e+004,1.500252e+004,1.500252e+004,,7.784540e+002,1.659368e+004,1.200202e+004,1.200202e+004
7.083260e+002,2.024970e+004,1.496740e+004,1.496740e+004,,7.783540e+002,1.619976e+004,1.197392e+004,1.197392e+004
7.084260e+002,1.984470e+004,1.493476e+004,1.493476e+004,,7.782540e+002,1.587576e+004,1.194781e+004,1.194781e+004
7.085260e+002,1.954720e+004,1.490389e+004,1.490389e+004,,7.781540e+002,1.563776e+004,1.192311e+004,1.192311e+004
7.086260e+002,1.930020e+004,1.487447e+004,1.487447e+004,,7.780540e+002,1.544016e+004,1.189957e+004,1.189957e+004
7.087260e+002,1.877650e+004,1.484835e+004,1.484835e+004,,7.779540e+002,1.502120e+004,1.187868e+004,1.187868e+004
7.088260e+002,1.831260e+004,1.482517e+004,1.482517e+004,,7.778540e+002,1.465008e+004,1.186013e+004,1.186013e+004
7.089260e+002,1.807710e+004,1.480340e+004,1.480340e+004,,7.777540e+002,1.446168e+004,1.184272e+004,1.184272e+004
7.090260e+002,1.806030e+004,1.478160e+004,1.478160e+004,,7.776540e+002,1.444824e+004,1.182528e+004,1.182528e+004
7.091260e+002,1.755980e+004,1.476301e+004,1.476301e+004,,7.775540e+002,1.404784e+004,1.181041e+004,1.181041e+004
7.092260e+002,1.772800e+004,1.474317e+004,1.474317e+004,,7.774540e+002,1.418240e+004,1.179453e+004,1.179453e+004
7.093260e+002,1.725760e+004,1.472634e+004,1.472634e+004,,7.773540e+002,1.380608e+004,1.178107e+004,1.178107e+004
7.094260e+002,1.726570e+004,1.470934e+004,1.470934e+004,,7.772540e+002,1.381256e+004,1.176747e+004,1.176747e+004
7.095260e+002,1.706230e+004,1.469359e+004,1.469359e+004,,7.771540e+002,1.364984e+004,1.175487e+004,1.175487e+004
7.096260e+002,1.730350e+004,1.467613e+004,1.467613e+004,,7.770540e+002,1.384280e+004,1.174090e+004,1.174090e+004
7.097260e+002,1.720210e+004,1.465922e+004,1.465922e+004,,7.769540e+002,1.376168e+004,1.172738e+004,1.172738e+004
7.098260e+002,1.700500e+004,1.464352e+004,1.464352e+004,,7.768540e+002,1.360400e+004,1.171482e+004,1.171482e+004
7.099260e+002,1.684110e+004,1.462881e+004,1.462881e+004,,7.767540e+002,1.347288e+004,1.170305e+004,1.170305e+004
7.100260e+002,1.672510e+004,1.461478e+004,1.461478e+004,,7.766540e+002,1.338008e+004,1.169183e+004,1.169183e+004
7.101260e+002,1.697070e+004,1.459901e+004,1.459901e+004,,7.765540e+002,1.357656e+004,1.167921e+004,1.167921e+004
7.102260e+002,1.661820e+004,1.458550e+004,1.458550e+004,,7.764540e+002,1.329456e+004,1.166840e+004,1.166840e+004
7.103260e+002,1.666440e+004,1.457159e+004,1.457159e+004,,7.763540e+002,1.333152e+004,1.165727e+004,1.165727e+004
7.104260e+002,1.663810e+004,1.455776e+004,1.455776e+004,,7.762540e+002,1.331048e+004,1.164620e+004,1.164620e+004
7.105260e+002,1.655810e+004,1.454437e+004,1.454437e+004,,7.761540e+002,1.324648e+004,1.163549e+004,1.163549e+004
7.106260e+002,1.654130e+004,1.453100e+004,1.453100e+004,,7.760540e+002,1.323304e+004,1.162480e+004,1.162480e+004
7.107260e+002,1.664050e+004,1.451688e+004,1.451688e+004,,7.759540e+002,1.331240e+004,1.161351e+004,1.161351e+004
7.108260e+002,1.663400e+004,1.450271e+004,1.450271e+004,,7.758540e+002,1.330720e+004,1.160217e+004,1.160217e+004
7.109260e+002,1.646390e+004,1.448959e+004,1.448959e+004,,7.757540e+002,1.317112e+004,1.159167e+004,1.159167e+004
7.110260e+002,1.660950e+004,1.447540e+004,1.447540e+004,,7.756540e+002,1.328760e+004,1.158032e+004,1.158032e+004
7.111260e+002,1.651410e+004,1.446176e+004,1.446176e+004,,7.755540e+002,1.321128e+004,1.156940e+004,1.156940e+004
7.112260e+002,1.633360e+004,1.444923e+004,1.444923e+004,,7.754540e+002,1.306688e+004,1.155938e+004,1.155938e+004
7.113260e+002,1.638000e+004,1.443631e+004,1.443631e+004,,7.753540e+002,1.310400e+004,1.154904e+004,1.154904e+004
7.114260e+002,1.650130e+004,1.442248e+004,1.442248e+004,,7.752540e+002,1.320104e+004,1.153799e+004,1.153799e+004
7.115260e+002,1.654140e+004,1.440830e+004,1.440830e+004,,7.751540e+002,1.323312e+004,1.152664e+004,1.152664e+004
7.116260e+002,1.637110e+004,1.439517e+004,1.439517e+004,,7.750540e+002,1.309688e+004,1.151613e+004,1.151613e+004
7.117260e+002,1.614540e+004,1.438345e+004,1.438345e+004,,7.749540e+002,1.291632e+004,1.150676e+004,1.150676e+004
7.118260e+002,1.645250e+004,1.436960e+004,1.436960e+004,,7.748540e+002,1.316200e+004,1.149568e+004,1.149568e+004
7.119260e+002,1.633480e+004,1.435645e+004,1.435645e+004,,7.747540e+002,1.306784e+004,1.148516e+004,1.148516e+004
7.120260e+002,1.621790e+004,1.434399e+004,1.434399e+004,,7.746540e+002,1.297432e+004,1.147519e+004,1.147519e+004
7.121260e+002,1.616540e+004,1.433180e+004,1.433180e+004,,7.745540e+002,1.293232e+004,1.146544e+004,1.146544e+004
7.122260e+002,1.618480e+004,1.431940e+004,1.431940e+004,,7.744540e+002,1.294784e+004,1.145552e+004,1.145552e+004
7.123260e+002,1.641130e+004,1.430540e+004,1.430540e+004,,7.743540e+002,1.312904e+004,1.144432e+004,1.144432e+004
7.124260e+002,1.613790e+004,1.429314e+004,1.429314e+004,,7.742540e+002,1.291032e+004,1.143451e+004,1.143451e+004
7.125260e+002,1.609000e+004,1.428111e+004,1.428111e+004,,7.741540e+002,1.287200e+004,1.142489e+004,1.142489e+004
7.126260e+002,1.619950e+004,1.426827e+004,1.426827e+004,,7.740540e+002,1.295960e+004,1.141462e+004,1.141462e+004
7.127260e+002,1.595100e+004,1.425701e+004,1.425701e+004,,7.739540e+002,1.276080e+004,1.140561e+004,1.140561e+004
7.128260e+002,1.603880e+004,1.424508e+004,1.424508e+004,,7.738540e+002,1.283104e+004,1.139607e+004,1.139607e+004
7.129260e+002,1.600250e+004,1.423332e+004,1.423332e+004,,7.737540e+002,1.280200e+004,1.138666e+004,1.138666e+004
7.130260e+002,1.613100e+004,1.422062e+004,1.422062e+004,,7.736540e+002,1.290480e+004,1.137650e+004,1.137650e+004
7.131260e+002,1.606260e+004,1.420829e+004,1.420829e+004,,7.735540e+002,1.285008e+004,1.136663e+004,1.136663e+004
7.132260e+002,1.592090e+004,1.419683e+004,1.419683e+004,,7.734540e+002,1.273672e+004,1.135746e+004,1.135746e+004
7.133260e+002,1.604400e+004,1.418447e+004,1.418447e+004,,7.733540e+002,1.283520e+004,1.134757e+004,1.134757e+004
7.134260e+002,1.629280e+004,1.417036e+004,1.417036e+004,,7.732540e+002,1.303424e+004,1.133629e+004,1.133629e+004
7.135260e+002,1.585680e+004,1.415907e+004,1.415907e+004,,7.731540e+002,1.268544e+004,1.132726e+004,1.132726e+004
7.136260e+002,1.594910e+004,1.414709e+004,1.414709e+004,,7.730540e+002,1.275928e+004,1.131767e+004,1.131767e+004
7.137260e+002,1.583940e+004,1.413576e+004,1.413576e+004,,7.729540e+002,1.267152e+004,1.130861e+004,1.130861e+004
7.138260e+002,1.578710e+004,1.412471e+004,1.412471e+004,,7.728540e+002,1.262968e+004,1.129977e+004,1.129977e+004
7.139260e+002,1.584560e+004,1.411319e+004,1.411319e+004,,7.727540e+002,1.267648e+004,1.129055e+004,1.129055e+004
7.140260e+002,1.590500e+004,1.410120e+004,1.410120e+004,,7.726540e+002,1.272400e+004,1.128096e+004,1.128096e+004
7.141260e+002,1.579350e+004,1.408987e+004,1.408987e+004,,7.725540e+002,1.263480e+004,1.127190e+004,1.127190e+004
7.142260e+002,1.573550e+004,1.407886e+004,1.407886e+004,,7.724540e+002,1.258840e+004,1.126309e+004,1.126309e+004
7.143260e+002,1.567730e+004,1.406816e+004,1.406816e+004,,7.723540e+002,1.254184e+004,1.125453e+004,1.125453e+004
7.144260e+002,1.574070e+004,1.405697e+004,1.405697e+004,,7.722540e+002,1.259256e+004,1.124557e+004,1.124557e+004
7.145260e+002,1.559630e+004,1.404667e+004,1.404667e+004,,7.721540e+002,1.247704e+004,1.123733e+004,1.123733e+004
7.146260e+002,1.575700e+004,1.403522e+004,1.403522e+004,,7.720540e+002,1.260560e+004,1.122818e+004,1.122818e+004
7.147260e+002,1.572470e+004,1.402391e+004,1.402391e+004,,7.719540e+002,1.257976e+004,1.121913e+004,1.121913e+004
7.148260e+002,1.556950e+004,1.401357e+004,1.401357e+004,,7.718540e+002,1.245560e+004,1.121085e+004,1.121085e+004
7.149260e+002,1.560210e+004,1.400294e+004,1.400294e+004,,7.717540e+002,1.248168e+004,1.120235e+004,1.120235e+004
7.150260e+002,1.582950e+004,1.399071e+004,1.399071e+004,,7.716540e+002,1.266360e+004,1.119257e+004,1.119257e+004
7.151260e+002,1.547890e+004,1.398075e+004,1.398075e+004,,7.715540e+002,1.238312e+004,1.118460e+004,1.118460e+004
7.152260e+002,1.551020e+004,1.397051e+004,1.397051e+004,,7.714540e+002,1.240816e+004,1.117641e+004,1.117641e+004
7.153260e+002,1.531680e+004,1.396150e+004,1.396150e+004,,7.713540e+002,1.225344e+004,1.116920e+004,1.116920e+004
7.154260e+002,1.546290e+004,1.395145e+004,1.395145e+004,,7.712540e+002,1.237032e+004,1.116116e+004,1.116116e+004
7.155260e+002,1.553130e+004,1.394088e+004,1.394088e+004,,7.711540e+002,1.242504e+004,1.115270e+004,1.115270e+004
7.156260e+002,1.522480e+004,1.393229e+004,1.393229e+004,,7.710540e+002,1.217984e+004,1.114583e+004,1.114583e+004
7.157260e+002,1.514320e+004,1.392418e+004,1.392418e+004,,7.709540e+002,1.211456e+004,1.113935e+004,1.113935e+004
7.158260e+002,1.527510e+004,1.391514e+004,1.391514e+004,,7.708540e+002,1.222008e+004,1.113211e+004,1.113211e+004
7.159260e+002,1.539590e+004,1.390523e+004,1.390523e+004,,7.707540e+002,1.231672e+004,1.112419e+004,1.112419e+004
7.160260e+002,1.527580e+004,1.389606e+004,1.389606e+004,,7.706540e+002,1.222064e+004,1.111685e+004,1.111685e+004
7.161260e+002,1.533420e+004,1.388643e+004,1.388643e+004,,7.705540e+002,1.226736e+004,1.110915e+004,1.110915e+004
7.162260e+002,1.512830e+004,1.387812e+004,1.387812e+004,,7.704540e+002,1.210264e+004,1.110250e+004,1.110250e+004
7.163260e+002,1.492930e+004,1.387109e+004,1.387109e+004,,7.703540e+002,1.194344e+004,1.109687e+004,1.109687e+004
7.164260e+002,1.493070e+004,1.386399e+004,1.386399e+004,,7.702540e+002,1.194456e+004,1.109120e+004,1.109120e+004
7.165260e+002,1.501170e+004,1.385631e+004,1.385631e+004,,7.701540e+002,1.200936e+004,1.108505e+004,1.108505e+004
7.166260e+002,1.482780e+004,1.384981e+004,1.384981e+004,,7.700540e+002,1.186224e+004,1.107985e+004,1.107985e+004
7.167260e+002,1.497220e+004,1.384230e+004,1.384230e+004,,7.699540e+002,1.197776e+004,1.107384e+004,1.107384e+004
7.168260e+002,1.483630e+004,1.383565e+004,1.383565e+004,,7.698540e+002,1.186904e+004,1.106852e+004,1.106852e+004
7.169260e+002,1.482580e+004,1.382902e+004,1.382902e+004,,7.697540e+002,1.186064e+004,1.106322e+004,1.106322e+004
7.170260e+002,1.496960e+004,1.382139e+004,1.382139e+004,,7.696540e+002,1.197568e+004,1.105711e+004,1.105711e+004
7.171260e+002,1.465110e+004,1.381583e+004,1.381583e+004,,7.695540e+002,1.172088e+004,1.105267e+004,1.105267e+004
7.172260e+002,1.478900e+004,1.380932e+004,1.380932e+004,,7.694540e+002,1.183120e+004,1.104746e+004,1.104746e+004
7.173260e+002,1.449610e+004,1.380472e+004,1.380472e+004,,7.693540e+002,1.159688e+004,1.104378e+004,1.104378e+004
7.174260e+002,1.448660e+004,1.380016e+004,1.380016e+004,,7.692540e+002,1.158928e+004,1.104013e+004,1.104013e+004
7.175260e+002,1.468120e+004,1.379426e+004,1.379426e+004,,7.691540e+002,1.174496e+004,1.103541e+004,1.103541e+004
7.176260e+002,1.467270e+004,1.378838e+004,1.378838e+004,,7.690540e+002,1.173816e+004,1.103071e+004,1.103071e+004
7.177260e+002,1.437640e+004,1.378445e+004,1.378445e+004,,7.689540e+002,1.150112e+004,1.102756e+004,1.102756e+004
7.178260e+002,1.435600e+004,1.378062e+004,1.378062e+004,,7.688540e+002,1.148480e+004,1.102450e+004,1.102450e+004
7.179260e+002,1.443340e+004,1.377625e+004,1.377625e+004,,7.687540e+002,1.154672e+004,1.102100e+004,1.102100e+004
7.180260e+002,1.458940e+004,1.377081e+004,1.377081e+004,,7.686540e+002,1.167152e+004,1.101665e+004,1.101665e+004
7.181260e+002,1.432050e+004,1.376713e+004,1.376713e+004,,7.685540e+002,1.145640e+004,1.101371e+004,1.101371e+004
7.182260e+002,1.443250e+004,1.376268e+004,1.376268e+004,,7.684540e+002,1.154600e+004,1.101014e+004,1.101014e+004
7.183260e+002,1.439760e+004,1.375843e+004,1.375843e+004,,7.683540e+002,1.151808e+004,1.100674e+004,1.100674e+004
7.184260e+002,1.448110e+004,1.375359e+004,1.375359e+004,,7.682540e+002,1.158488e+004,1.100287e+004,1.100287e+004
7.185260e+002,1.409630e+004,1.375130e+004,1.375130e+004,,7.681540e+002,1.127704e+004,1.100104e+004,1.100104e+004
7.186260e+002,1.430520e+004,1.374759e+004,1.374759e+004,,7.680540e+002,1.144416e+004,1.099807e+004,1.099807e+004
7.187260e+002,1.411620e+004,1.374513e+004,1.374513e+004,,7.679540e+002,1.129296e+004,1.099610e+004,1.099610e+004
7.188260e+002,1.421700e+004,1.374197e+004,1.374197e+004,,7.678540e+002,1.137360e+004,1.099357e+004,1.099357e+004
7.189260e+002,1.405550e+004,1.373987e+004,1.373987e+004,,7.677540e+002,1.124440e+004,1.099190e+004,1.099190e+004
7.190260e+002,1.424900e+004,1.373646e+004,1.373646e+004,,7.676540e+002,1.139920e+004,1.098917e+004,1.098917e+004
7.191260e+002,1.406490e+004,1.373426e+004,1.373426e+004,,7.675540e+002,1.125192e+004,1.098741e+004,1.098741e+004
7.192260e+002,1.391540e+004,1.373305e+004,1.373305e+004,,7.674540e+002,1.113232e+004,1.098644e+004,1.098644e+004
7.193260e+002,1.406080e+004,1.373086e+004,1.373086e+004,,7.673540e+002,1.124864e+004,1.098469e+004,1.098469e+004
7.194260e+002,1.398750e+004,1.372914e+004,1.372914e+004,,7.672540e+002,1.119000e+004,1.098331e+004,1.098331e+004
7.195260e+002,1.398850e+004,1.372740e+004,1.372740e+004,,7.671540e+002,1.119080e+004,1.098192e+004,1.098192e+004
7.196260e+002,1.404870e+004,1.372525e+004,1.372525e+004,,7.670540e+002,1.123896e+004,1.098020e+004,1.098020e+004
7.197260e+002,1.405250e+004,1.372306e+004,1.372306e+004,,7.669540e+002,1.124200e+004,1.097845e+004,1.097845e+004
7.198260e+002,1.405480e+004,1.372084e+004,1.372084e+004,,7.668540e+002,1.124384e+004,1.097667e+004,1.097667e+004
7.199260e+002,1.388900e+004,1.371972e+004,1.371972e+004,,7.667540e+002,1.111120e+004,1.097577e+004,1.097577e+004
7.200260e+002,1.382290e+004,1.371903e+004,1.371903e+004,,7.666540e+002,1.105832e+004,1.097522e+004,1.097522e+004
7.201260e+002,1.385510e+004,1.371812e+004,1.371812e+004,,7.665540e+002,1.108408e+004,1.097449e+004,1.097449e+004
7.202260e+002,1.386170e+004,1.371716e+004,1.371716e+004,,7.664540e+002,1.108936e+004,1.097372e+004,1.097372e+004
7.203260e+002,1.384830e+004,1.371628e+004,1.371628e+004,,7.663540e+002,1.107864e+004,1.097302e+004,1.097302e+004
7.204260e+002,1.388330e+004,1.371516e+004,1.371516e+004,,7.662540e+002,1.110664e+004,1.097213e+004,1.097213e+004
7.205260e+002,1.378190e+004,1.371471e+004,1.371471e+004,,7.661540e+002,1.102552e+004,1.097177e+004,1.097177e+004
7.206260e+002,1.382230e+004,1.371399e+004,1.371399e+004,,7.660540e+002,1.105784e+004,1.097119e+004,1.097119e+004
7.207260e+002,1.341520e+004,1.371202e+004,1.371202e+004,,7.659540e+002,1.073216e+004,1.096962e+004,1.096962e+004
7.208260e+002,1.356210e+004,1.371103e+004,1.371103e+004,,7.658540e+002,1.084968e+004,1.096882e+004,1.096882e+004
7.209260e+002,1.387790e+004,1.370991e+004,1.370991e+004,,7.657540e+002,1.110232e+004,1.096793e+004,1.096793e+004
7.210260e+002,1.382660e+004,1.370913e+004,1.370913e+004,,7.656540e+002,1.106128e+004,1.096731e+004,1.096731e+004
7.211260e+002,1.371320e+004,1.370910e+004,1.370910e+004,,7.655540e+002,1.097056e+004,1.096728e+004,1.096728e+004
7.212260e+002,1.360350e+004,1.370841e+004,1.370841e+004,,7.654540e+002,1.088280e+004,1.096673e+004,1.096673e+004
7.213260e+002,1.364250e+004,1.370797e+004,1.370797e+004,,7.653540e+002,1.091400e+004,1.096638e+004,1.096638e+004
7.214260e+002,1.359150e+004,1.370720e+004,1.370720e+004,,7.652540e+002,1.087320e+004,1.096576e+004,1.096576e+004
7.215260e+002,1.374770e+004,1.370693e+004,1.370693e+004,,7.651540e+002,1.099816e+004,1.096555e+004,1.096555e+004
7.216260e+002,1.375220e+004,1.370663e+004,1.370663e+004,,7.650540e+002,1.100176e+004,1.096530e+004,1.096530e+004
7.217260e+002,1.364760e+004,1.370624e+004,1.370624e+004,,7.649540e+002,1.091808e+004,1.096499e+004,1.096499e+004
7.218260e+002,1.384130e+004,1.370533e+004,1.370533e+004,,7.648540e+002,1.107304e+004,1.096427e+004,1.096427e+004
7.219260e+002,1.369290e+004,1.370525e+004,1.370525e+004,,7.647540e+002,1.095432e+004,1.096420e+004,1.096420e+004
7.220260e+002,1.362700e+004,1.370474e+004,1.370474e+004,,7.646540e+002,1.090160e+004,1.096379e+004,1.096379e+004
7.221260e+002,1.352590e+004,1.370355e+004,1.370355e+004,,7.645540e+002,1.082072e+004,1.096284e+004,1.096284e+004
7.222260e+002,1.364650e+004,1.364650e+004,1.364650e+004,,7.644540e+002,1.091720e+004,1.091720e+004,1.091720e+004
7.223260e+002,1.382430e+004,1.382430e+004,1.382430e+004,,7.643540e+002,1.105944e+004,1.105944e+004,1.105944e+004
7.224260e+002,1.370870e+004,1.370870e+004,1.370870e+004,,7.642540e+002,1.096696e+004,1.096696e+004,1.096696e+004
7.225260e+002,1.375380e+004,1.375380e+004,1.375380e+004,,7.641540e+002,1.100304e+004,1.100304e+004,1.100304e+004
7.226260e+002,1.371890e+004,1.371890e+004,1.371890e+004,,7.640540e+002,1.097512e+004,1.097512e+004,1.097512e+004
7.227260e+002,1.379800e+004,1.379800e+004,1.379800e+004,,7.639540e+002,1.103840e+004,1.103840e+004,1.103840e+004
7.228260e+002,1.364330e+004,1.364330e+004,1.364330e+004,,7.638540e+002,1.091464e+004,1.091464e+004,1.091464e+004
7.229260e+002,1.371150e+004,1.371150e+004,1.371150e+004,,7.637540e+002,1.096920e+004,1.096920e+004,1.096920e+004
7.230260e+002,1.373000e+004,1.373000e+004,1.373000e+004,,7.636540e+002,1.098400e+004,1.098400e+004,1.098400e+004
7.231260e+002,1.366010e+004,1.366010e+004,1.366010e+004,,7.635540e+002,1.092808e+004,1.092808e+004,1.092808e+004
7.232260e+002,1.371260e+004,1.371260e+004,1.371260e+004,,7.634540e+002,1.097008e+004,1.097008e+004,1.097008e+004
7.233260e+002,1.358400e+004,1.358400e+004,1.358400e+004,,7.633540e+002,1.086720e+004,1.086720e+004,1.086720e+004
