"Cycle 2:Pt #001:Co2p Scan"
,Characteristic Energy eV,1.486680e+003,Acquisition Time s,1.250000e+000
Name,,
Position,,
FWHM,,
Area,,
Lineshape,,
K.E.,Counts,Background,Envelope,,B.E.,CPS,Background CPS,Envelope CPS
6.720890e+002,2.392050e+004,2.392050e+004,2.392050e+004,,8.145910e+002,1.913640e+004,1.913640e+004,1.913640e+004
6.721890e+002,2.403230e+004,2.403230e+004,2.403230e+004,,8.144910e+002,1.922584e+004,1.922584e+004,1.922584e+004
6.722890e+002,2.398950e+004,2.398950e+004,2.398950e+004,,8.143910e+002,1.919160e+004,1.919160e+004,1.919160e+004
6.723890e+002,2.425050e+004,2.425050e+004,2.425050e+004,,8.142910e+002,1.940040e+004,1.940040e+004,1.940040e+004
6.724890e+002,2.383690e+004,2.383690e+004,2.383690e+004,,8.141910e+002,1.906952e+004,1.906952e+004,1.906952e+004
6.725890e+002,2.380900e+004,2.380900e+004,2.380900e+004,,8.140910e+002,1.904720e+004,1.904720e+004,1.904720e+004
6.726890e+002,2.385430e+004,2.385430e+004,2.385430e+004,,8.139910e+002,1.908344e+004,1.908344e+004,1.908344e+004
6.727890e+002,2.385550e+004,2.385550e+004,2.385550e+004,,8.138910e+002,1.908440e+004,1.908440e+004,1.908440e+004
6.728890e+002,2.384440e+004,2.384440e+004,2.384440e+004,,8.137910e+002,1.907552e+004,1.907552e+004,1.907552e+004
6.729890e+002,2.413450e+004,2.413450e+004,2.413450e+004,,8.136910e+002,1.930760e+004,1.930760e+004,1.930760e+004
6.730890e+002,2.397390e+004,2.397390e+004,2.397390e+004,,8.135910e+002,1.917912e+004,1.917912e+004,1.917912e+004
6.731890e+002,2.403700e+004,2.403700e+004,2.403700e+004,,8.134910e+002,1.922960e+004,1.922960e+004,1.922960e+004
6.732890e+002,2.395450e+004,2.395450e+004,2.395450e+004,,8.133910e+002,1.916360e+004,1.916360e+004,1.916360e+004
6.733890e+002,2.357970e+004,2.357970e+004,2.357970e+004,,8.132910e+002,1.886376e+004,1.886376e+004,1.886376e+004
6.734890e+002,2.384020e+004,2.384020e+004,2.384020e+004,,8.131910e+002,1.907216e+004,1.907216e+004,1.907216e+004
6.735890e+002,2.370210e+004,2.370210e+004,2.370210e+004,,8.130910e+002,1.896168e+004,1.896168e+004,1.896168e+004
6.736890e+002,2.373230e+004,2.373230e+004,2.373230e+004,,8.129910e+002,1.898584e+004,1.898584e+004,1.898584e+004
6.737890e+002,2.386650e+004,2.386650e+004,2.386650e+004,,8.128910e+002,1.909320e+004,1.909320e+004,1.909320e+004
6.738890e+002,2.390830e+004,2.390830e+004,2.390830e+004,,8.127910e+002,1.912664e+004,1.912664e+004,1.912664e+004
6.739890e+002,2.386680e+004,2.386680e+004,2.386680e+004,,8.126910e+002,1.909344e+004,1.909344e+004,1.909344e+004
6.740890e+002,2.388590e+004,2.388590e+004,2.388590e+004,,8.125910e+002,1.910872e+004,1.910872e+004,1.910872e+004
6.741890e+002,2.378910e+004,2.378910e+004,2.378910e+004,,8.124910e+002,1.903128e+004,1.903128e+004,1.903128e+004
6.742890e+002,2.369500e+004,2.369500e+004,2.369500e+004,,8.123910e+002,1.895600e+004,1.895600e+004,1.895600e+004
6.743890e+002,2.377610e+004,2.377610e+004,2.377610e+004,,8.122910e+002,1.902088e+004,1.902088e+004,1.902088e+004
6.744890e+002,2.389760e+004,2.389760e+004,2.389760e+004,,8.121910e+002,1.911808e+004,1.911808e+004,1.911808e+004
6.745890e+002,2.371110e+004,2.371110e+004,2.371110e+004,,8.120910e+002,1.896888e+004,1.896888e+004,1.896888e+004
6.746890e+002,2.369300e+004,2.369300e+004,2.369300e+004,,8.119910e+002,1.895440e+004,1.895440e+004,1.895440e+004
6.747890e+002,2.381710e+004,2.381710e+004,2.381710e+004,,8.118910e+002,1.905368e+004,1.905368e+004,1.905368e+004
6.748890e+002,2.353700e+004,2.353700e+004,2.353700e+004,,8.117910e+002,1.882960e+004,1.882960e+004,1.882960e+004
6.749890e+002,2.344410e+004,2.344410e+004,2.344410e+004,,8.116910e+002,1.875528e+004,1.875528e+004,1.875528e+004
6.750890e+002,2.387260e+004,2.387260e+004,2.387260e+004,,8.115910e+002,1.909808e+004,1.909808e+004,1.909808e+004
6.751890e+002,2.360150e+004,2.360150e+004,2.360150e+004,,8.114910e+002,1.888120e+004,1.888120e+004,1.888120e+004
6.752890e+002,2.371140e+004,2.371140e+004,2.371140e+004,,8.113910e+002,1.896912e+004,1.896912e+004,1.896912e+004
6.753890e+002,2.370350e+004,2.370350e+004,2.370350e+004,,8.112910e+002,1.896280e+004,1.896280e+004,1.896280e+004
6.754890e+002,2.375390e+004,2.375390e+004,2.375390e+004,,8.111910e+002,1.900312e+004,1.900312e+004,1.900312e+004
6.755890e+002,2.385350e+004,2.385350e+004,2.385350e+004,,8.110910e+002,1.908280e+004,1.908280e+004,1.908280e+004
6.756890e+002,2.341210e+004,2.341210e+004,2.341210e+004,,8.109910e+002,1.872968e+004,1.872968e+004,1.872968e+004
6.757890e+002,2.346430e+004,2.346430e+004,2.346430e+004,,8.108910e+002,1.877144e+004,1.877144e+004,1.877144e+004
6.758890e+002,2.348870e+004,2.348870e+004,2.348870e+004,,8.107910e+002,1.879096e+004,1.879096e+004,1.879096e+004
6.759890e+002,2.364910e+004,2.364910e+004,2.364910e+004,,8.106910e+002,1.891928e+004,1.891928e+004,1.891928e+004
6.760890e+002,2.377550e+004,2.377550e+004,2.377550e+004,,8.105910e+002,1.902040e+004,1.902040e+004,1.902040e+004
6.761890e+002,2.346510e+004,2.346510e+004,2.346510e+004,,8.104910e+002,1.877208e+004,1.877208e+004,1.877208e+004
6.762890e+002,2.361160e+004,2.361160e+004,2.361160e+004,,8.103910e+002,1.888928e+004,1.888928e+004,1.888928e+004
6.763890e+002,2.346580e+004,2.346580e+004,2.346580e+004,,8.102910e+002,1.877264e+004,1.877264e+004,1.877264e+004
6.764890e+002,2.360780e+004,2.360780e+004,2.360780e+004,,8.101910e+002,1.888624e+004,1.888624e+004,1.888624e+004
6.765890e+002,2.329280e+004,2.329280e+004,2.329280e+004,,8.100910e+002,1.863424e+004,1.863424e+004,1.863424e+004
6.766890e+002,2.360140e+004,2.360140e+004,2.360140e+004,,8.099910e+002,1.888112e+004,1.888112e+004,1.888112e+004
6.767890e+002,2.341480e+004,2.341480e+004,2.341480e+004,,8.098910e+002,1.873184e+004,1.873184e+004,1.873184e+004
6.768890e+002,2.358170e+004,2.358170e+004,2.358170e+004,,8.097910e+002,1.886536e+004,1.886536e+004,1.886536e+004
6.769890e+002,2.369860e+004,2.369860e+004,2.369860e+004,,8.096910e+002,1.895888e+004,1.895888e+004,1.895888e+004
6.770890e+002,2.330000e+004,2.330000e+004,2.330000e+004,,8.095910e+002,1.864000e+004,1.864000e+004,1.864000e+004
6.771890e+002,2.343870e+004,2.343870e+004,2.343870e+004,,8.094910e+002,1.875096e+004,1.875096e+004,1.875096e+004
6.772890e+002,2.350980e+004,2.350980e+004,2.350980e+004,,8.093910e+002,1.880784e+004,1.880784e+004,1.880784e+004
6.773890e+002,2.342640e+004,2.342640e+004,2.342640e+004,,8.092910e+002,1.874112e+004,1.874112e+004,1.874112e+004
6.774890e+002,2.361990e+004,2.361990e+004,2.361990e+004,,8.091910e+002,1.889592e+004,1.889592e+004,1.889592e+004
6.775890e+002,2.323720e+004,2.323720e+004,2.323720e+004,,8.090910e+002,1.858976e+004,1.858976e+004,1.858976e+004
6.776890e+002,2.345890e+004,2.345890e+004,2.345890e+004,,8.089910e+002,1.876712e+004,1.876712e+004,1.876712e+004
6.777890e+002,2.367780e+004,2.367780e+004,2.367780e+004,,8.088910e+002,1.894224e+004,1.894224e+004,1.894224e+004
6.778890e+002,2.358780e+004,2.358780e+004,2.358780e+004,,8.087910e+002,1.887024e+004,1.887024e+004,1.887024e+004
6.779890e+002,2.347820e+004,2.347820e+004,2.347820e+004,,8.086910e+002,1.878256e+004,1.878256e+004,1.878256e+004
6.780890e+002,2.335270e+004,2.335270e+004,2.335270e+004,,8.085910e+002,1.868216e+004,1.868216e+004,1.868216e+004
6.781890e+002,2.340660e+004,2.340660e+004,2.340660e+004,,8.084910e+002,1.872528e+004,1.872528e+004,1.872528e+004
6.782890e+002,2.370400e+004,2.370400e+004,2.370400e+004,,8.083910e+002,1.896320e+004,1.896320e+004,1.896320e+004
6.783890e+002,2.363790e+004,2.363790e+004,2.363790e+004,,8.082910e+002,1.891032e+004,1.891032e+004,1.891032e+004
6.784890e+002,2.344600e+004,2.344600e+004,2.344600e+004,,8.081910e+002,1.875680e+004,1.875680e+004,1.875680e+004
6.785890e+002,2.340770e+004,2.340770e+004,2.340770e+004,,8.080910e+002,1.872616e+004,1.872616e+004,1.872616e+004
6.786890e+002,2.332260e+004,2.332260e+004,2.332260e+004,,8.079910e+002,1.865808e+004,1.865808e+004,1.865808e+004
6.787890e+002,2.328430e+004,2.328430e+004,2.328430e+004,,8.078910e+002,1.862744e+004,1.862744e+004,1.862744e+004
6.788890e+002,2.352040e+004,2.352040e+004,2.352040e+004,,8.077910e+002,1.881632e+004,1.881632e+004,1.881632e+004
6.789890e+002,2.388670e+004,2.388670e+004,2.388670e+004,,8.076910e+002,1.910936e+004,1.910936e+004,1.910936e+004
6.790890e+002,2.364290e+004,2.364290e+004,2.364290e+004,,8.075910e+002,1.891432e+004,1.891432e+004,1.891432e+004
6.791890e+002,2.368230e+004,2.368230e+004,2.368230e+004,,8.074910e+002,1.894584e+004,1.894584e+004,1.894584e+004
6.792890e+002,2.389440e+004,2.389440e+004,2.389440e+004,,8.073910e+002,1.911552e+004,1.911552e+004,1.911552e+004
6.793890e+002,2.351250e+004,2.351250e+004,2.351250e+004,,8.072910e+002,1.881000e+004,1.881000e+004,1.881000e+004
6.794890e+002,2.389570e+004,2.389570e+004,2.389570e+004,,8.071910e+002,1.911656e+004,1.911656e+004,1.911656e+004
6.795890e+002,2.374600e+004,2.374600e+004,2.374600e+004,,8.070910e+002,1.899680e+004,1.899680e+004,1.899680e+004
6.796890e+002,2.387470e+004,2.387470e+004,2.387470e+004,,8.069910e+002,1.909976e+004,1.909976e+004,1.909976e+004
6.797890e+002,2.380460e+004,2.380460e+004,2.380460e+004,,8.068910e+002,1.904368e+004,1.904368e+004,1.904368e+004
6.798890e+002,2.411700e+004,2.411700e+004,2.411700e+004,,8.067910e+002,1.929360e+004,1.929360e+004,1.929360e+004
6.799890e+002,2.371440e+004,2.371440e+004,2.371440e+004,,8.066910e+002,1.897152e+004,1.897152e+004,1.897152e+004
6.800890e+002,2.405190e+004,2.405190e+004,2.405190e+004,,8.065910e+002,1.924152e+004,1.924152e+004,1.924152e+004
6.801890e+002,2.383610e+004,2.383610e+004,2.383610e+004,,8.064910e+002,1.906888e+004,1.906888e+004,1.906888e+004
6.802890e+002,2.410940e+004,2.410940e+004,2.410940e+004,,8.063910e+002,1.928752e+004,1.928752e+004,1.928752e+004
6.803890e+002,2.429130e+004,2.429130e+004,2.429130e+004,,8.062910e+002,1.943304e+004,1.943304e+004,1.943304e+004
6.804890e+002,2.419460e+004,2.419460e+004,2.419460e+004,,8.061910e+002,1.935568e+004,1.935568e+004,1.935568e+004
6.805890e+002,2.394660e+004,2.394660e+004,2.394660e+004,,8.060910e+002,1.915728e+004,1.915728e+004,1.915728e+004
6.806890e+002,2.403950e+004,2.403950e+004,2.403950e+004,,8.059910e+002,1.923160e+004,1.923160e+004,1.923160e+004
6.807890e+002,2.434430e+004,2.434430e+004,2.434430e+004,,8.058910e+002,1.947544e+004,1.947544e+004,1.947544e+004
6.808890e+002,2.454700e+004,2.454700e+004,2.454700e+004,,8.057910e+002,1.963760e+004,1.963760e+004,1.963760e+004
6.809890e+002,2.402440e+004,2.402440e+004,2.402440e+004,,8.056910e+002,1.921952e+004,1.921952e+004,1.921952e+004
6.810890e+002,2.448970e+004,2.448970e+004,2.448970e+004,,8.055910e+002,1.959176e+004,1.959176e+004,1.959176e+004
6.811890e+002,2.431270e+004,2.431270e+004,2.431270e+004,,8.054910e+002,1.945016e+004,1.945016e+004,1.945016e+004
6.812890e+002,2.467440e+004,2.467440e+004,2.467440e+004,,8.053910e+002,1.973952e+004,1.973952e+004,1.973952e+004
6.813890e+002,2.442180e+004,2.442180e+004,2.442180e+004,,8.052910e+002,1.953744e+004,1.953744e+004,1.953744e+004
6.814890e+002,2.466390e+004,2.466390e+004,2.466390e+004,,8.051910e+002,1.973112e+004,1.973112e+004,1.973112e+004
6.815890e+002,2.463140e+004,2.463140e+004,2.463140e+004,,8.050910e+002,1.970512e+004,1.970512e+004,1.970512e+004
6.816890e+002,2.457610e+004,2.457610e+004,2.457610e+004,,8.049910e+002,1.966088e+004,1.966088e+004,1.966088e+004
6.817890e+002,2.477040e+004,2.477040e+004,2.477040e+004,,8.048910e+002,1.981632e+004,1.981632e+004,1.981632e+004
6.818890e+002,2.460650e+004,2.460650e+004,2.460650e+004,,8.047910e+002,1.968520e+004,1.968520e+004,1.968520e+004
6.819890e+002,2.452060e+004,2.452060e+004,2.452060e+004,,8.046910e+002,1.961648e+004,1.961648e+004,1.961648e+004
6.820890e+002,2.494200e+004,2.494200e+004,2.494200e+004,,8.045910e+002,1.995360e+004,1.995360e+004,1.995360e+004
6.821890e+002,2.468730e+004,2.468730e+004,2.468730e+004,,8.044910e+002,1.974984e+004,1.974984e+004,1.974984e+004
6.822890e+002,2.493170e+004,2.493170e+004,2.493170e+004,,8.043910e+002,1.994536e+004,1.994536e+004,1.994536e+004
6.823890e+002,2.517170e+004,2.517170e+004,2.517170e+004,,8.042910e+002,2.013736e+004,2.013736e+004,2.013736e+004
6.824890e+002,2.518550e+004,2.518550e+004,2.518550e+004,,8.041910e+002,2.014840e+004,2.014840e+004,2.014840e+004
6.825890e+002,2.536480e+004,2.536480e+004,2.536480e+004,,8.040910e+002,2.029184e+004,2.029184e+004,2.029184e+004
6.826890e+002,2.525480e+004,2.525480e+004,2.525480e+004,,8.039910e+002,2.020384e+004,2.020384e+004,2.020384e+004
6.827890e+002,2.511610e+004,2.511610e+004,2.511610e+004,,8.038910e+002,2.009288e+004,2.009288e+004,2.009288e+004
6.828890e+002,2.542310e+004,2.542310e+004,2.542310e+004,,8.037910e+002,2.033848e+004,2.033848e+004,2.033848e+004
6.829890e+002,2.552720e+004,2.552720e+004,2.552720e+004,,8.036910e+002,2.042176e+004,2.042176e+004,2.042176e+004
6.830890e+002,2.552590e+004,2.552590e+004,2.552590e+004,,8.035910e+002,2.042072e+004,2.042072e+004,2.042072e+004
6.831890e+002,2.581400e+004,2.581400e+004,2.581400e+004,,8.034910e+002,2.065120e+004,2.065120e+004,2.065120e+004
6.832890e+002,2.559260e+004,2.559260e+004,2.559260e+004,,8.033910e+002,2.047408e+004,2.047408e+004,2.047408e+004
6.833890e+002,2.570210e+004,2.570210e+004,2.570210e+004,,8.032910e+002,2.056168e+004,2.056168e+004,2.056168e+004
6.834890e+002,2.587270e+004,2.587270e+004,2.587270e+004,,8.031910e+002,2.069816e+004,2.069816e+004,2.069816e+004
6.835890e+002,2.597870e+004,2.597870e+004,2.597870e+004,,8.030910e+002,2.078296e+004,2.078296e+004,2.078296e+004
6.836890e+002,2.629960e+004,2.629960e+004,2.629960e+004,,8.029910e+002,2.103968e+004,2.103968e+004,2.103968e+004
6.837890e+002,2.596860e+004,2.596860e+004,2.596860e+004,,8.028910e+002,2.077488e+004,2.077488e+004,2.077488e+004
6.838890e+002,2.655630e+004,2.655630e+004,2.655630e+004,,8.027910e+002,2.124504e+004,2.124504e+004,2.124504e+004
6.839890e+002,2.622230e+004,2.622230e+004,2.622230e+004,,8.026910e+002,2.097784e+004,2.097784e+004,2.097784e+004
6.840890e+002,2.616310e+004,2.616310e+004,2.616310e+004,,8.025910e+002,2.093048e+004,2.093048e+004,2.093048e+004
6.841890e+002,2.625150e+004,2.625150e+004,2.625150e+004,,8.024910e+002,2.100120e+004,2.100120e+004,2.100120e+004
6.842890e+002,2.653140e+004,2.653140e+004,2.653140e+004,,8.023910e+002,2.122512e+004,2.122512e+004,2.122512e+004
6.843890e+002,2.643450e+004,2.643450e+004,2.643450e+004,,8.022910e+002,2.114760e+004,2.114760e+004,2.114760e+004
6.844890e+002,2.669250e+004,2.669250e+004,2.669250e+004,,8.021910e+002,2.135400e+004,2.135400e+004,2.135400e+004
6.845890e+002,2.650030e+004,2.650030e+004,2.650030e+004,,8.020910e+002,2.120024e+004,2.120024e+004,2.120024e+004
6.846890e+002,2.673050e+004,2.673050e+004,2.673050e+004,,8.019910e+002,2.138440e+004,2.138440e+004,2.138440e+004
6.847890e+002,2.670380e+004,2.670380e+004,2.670380e+004,,8.018910e+002,2.136304e+004,2.136304e+004,2.136304e+004
6.848890e+002,2.660490e+004,2.660490e+004,2.660490e+004,,8.017910e+002,2.128392e+004,2.128392e+004,2.128392e+004
6.849890e+002,2.680120e+004,2.680120e+004,2.680120e+004,,8.016910e+002,2.144096e+004,2.144096e+004,2.144096e+004
6.850890e+002,2.669510e+004,2.669510e+004,2.669510e+004,,8.015910e+002,2.135608e+004,2.135608e+004,2.135608e+004
6.851890e+002,2.690950e+004,2.690950e+004,2.690950e+004,,8.014910e+002,2.152760e+004,2.152760e+004,2.152760e+004
6.852890e+002,2.695130e+004,2.695130e+004,2.695130e+004,,8.013910e+002,2.156104e+004,2.156104e+004,2.156104e+004
6.853890e+002,2.668650e+004,2.668650e+004,2.668650e+004,,8.012910e+002,2.134920e+004,2.134920e+004,2.134920e+004
6.854890e+002,2.685180e+004,2.685180e+004,2.685180e+004,,8.011910e+002,2.148144e+004,2.148144e+004,2.148144e+004
6.855890e+002,2.649350e+004,2.649350e+004,2.649350e+004,,8.010910e+002,2.119480e+004,2.119480e+004,2.119480e+004
6.856890e+002,2.637550e+004,2.637550e+004,2.637550e+004,,8.009910e+002,2.110040e+004,2.110040e+004,2.110040e+004
6.857890e+002,2.627420e+004,2.627420e+004,2.627420e+004,,8.008910e+002,2.101936e+004,2.101936e+004,2.101936e+004
6.858890e+002,2.643500e+004,2.643500e+004,2.643500e+004,,8.007910e+002,2.114800e+004,2.114800e+004,2.114800e+004
6.859890e+002,2.608970e+004,2.608970e+004,2.608970e+004,,8.006910e+002,2.087176e+004,2.087176e+004,2.087176e+004
6.860890e+002,2.586820e+004,2.586820e+004,2.586820e+004,,8.005910e+002,2.069456e+004,2.069456e+004,2.069456e+004
6.861890e+002,2.571620e+004,2.571620e+004,2.571620e+004,,8.004910e+002,2.057296e+004,2.057296e+004,2.057296e+004
6.862890e+002,2.606530e+004,2.606530e+004,2.606530e+004,,8.003910e+002,2.085224e+004,2.085224e+004,2.085224e+004
6.863890e+002,2.564040e+004,2.564040e+004,2.564040e+004,,8.002910e+002,2.051232e+004,2.051232e+004,2.051232e+004
6.864890e+002,2.559280e+004,2.559280e+004,2.559280e+004,,8.001910e+002,2.047424e+004,2.047424e+004,2.047424e+004
6.865890e+002,2.576920e+004,2.576920e+004,2.576920e+004,,8.000910e+002,2.061536e+004,2.061536e+004,2.061536e+004
6.866890e+002,2.567360e+004,2.567360e+004,2.567360e+004,,7.999910e+002,2.053888e+004,2.053888e+004,2.053888e+004
6.867890e+002,2.546400e+004,2.546400e+004,2.546400e+004,,7.998910e+002,2.037120e+004,2.037120e+004,2.037120e+004
6.868890e+002,2.526440e+004,2.526440e+004,2.526440e+004,,7.997910e+002,2.021152e+004,2.021152e+004,2.021152e+004
6.869890e+002,2.533980e+004,2.533980e+004,2.533980e+004,,7.996910e+002,2.027184e+004,2.027184e+004,2.027184e+004
6.870890e+002,2.534480e+004,2.534480e+004,2.534480e+004,,7.995910e+002,2.027584e+004,2.027584e+004,2.027584e+004
6.871890e+002,2.530140e+004,2.530140e+004,2.530140e+004,,7.994910e+002,2.024112e+004,2.024112e+004,2.024112e+004
6.872890e+002,2.524740e+004,2.524740e+004,2.524740e+004,,7.993910e+002,2.019792e+004,2.019792e+004,2.019792e+004
6.873890e+002,2.538450e+004,2.538450e+004,2.538450e+004,,7.992910e+002,2.030760e+004,2.030760e+004,2.030760e+004
6.874890e+002,2.505440e+004,2.505440e+004,2.505440e+004,,7.991910e+002,2.004352e+004,2.004352e+004,2.004352e+004
6.875890e+002,2.527960e+004,2.527960e+004,2.527960e+004,,7.990910e+002,2.022368e+004,2.022368e+004,2.022368e+004
6.876890e+002,2.534910e+004,2.534910e+004,2.534910e+004,,7.989910e+002,2.027928e+004,2.027928e+004,2.027928e+004
6.877890e+002,2.501150e+004,2.501150e+004,2.501150e+004,,7.988910e+002,2.000920e+004,2.000920e+004,2.000920e+004
6.878890e+002,2.526660e+004,2.526660e+004,2.526660e+004,,7.987910e+002,2.021328e+004,2.021328e+004,2.021328e+004
6.879890e+002,2.522680e+004,2.522680e+004,2.522680e+004,,7.986910e+002,2.018144e+004,2.018144e+004,2.018144e+004
6.880890e+002,2.538930e+004,2.538930e+004,2.538930e+004,,7.985910e+002,2.031144e+004,2.031144e+004,2.031144e+004
6.881890e+002,2.564270e+004,2.564270e+004,2.564270e+004,,7.984910e+002,2.051416e+004,2.051416e+004,2.051416e+004
6.882890e+002,2.535700e+004,2.535700e+004,2.535700e+004,,7.983910e+002,2.028560e+004,2.028560e+004,2.028560e+004
6.883890e+002,2.577160e+004,2.577160e+004,2.577160e+004,,7.982910e+002,2.061728e+004,2.061728e+004,2.061728e+004
6.884890e+002,2.556240e+004,2.556240e+004,2.556240e+004,,7.981910e+002,2.044992e+004,2.044992e+004,2.044992e+004
6.885890e+002,2.570480e+004,2.570480e+004,2.570480e+004,,7.980910e+002,2.056384e+004,2.056384e+004,2.056384e+004
6.886890e+002,2.604340e+004,2.604340e+004,2.604340e+004,,7.979910e+002,2.083472e+004,2.083472e+004,2.083472e+004
6.887890e+002,2.580380e+004,2.580380e+004,2.580380e+004,,7.978910e+002,2.064304e+004,2.064304e+004,2.064304e+004
6.888890e+002,2.631810e+004,2.631810e+004,2.631810e+004,,7.977910e+002,2.105448e+004,2.105448e+004,2.105448e+004
6.889890e+002,2.623960e+004,2.623960e+004,2.623960e+004,,7.976910e+002,2.099168e+004,2.099168e+004,2.099168e+004
6.890890e+002,2.640560e+004,2.640560e+004,2.640560e+004,,7.975910e+002,2.112448e+004,2.112448e+004,2.112448e+004
6.891890e+002,2.671590e+004,2.671590e+004,2.671590e+004,,7.974910e+002,2.137272e+004,2.137272e+004,2.137272e+004
6.892890e+002,2.670260e+004,2.670260e+004,2.670260e+004,,7.973910e+002,2.136208e+004,2.136208e+004,2.136208e+004
6.893890e+002,2.690730e+004,2.690730e+004,2.690730e+004,,7.972910e+002,2.152584e+004,2.152584e+004,2.152584e+004
6.894890e+002,2.709510e+004,2.709510e+004,2.709510e+004,,7.971910e+002,2.167608e+004,2.167608e+004,2.167608e+004
6.895890e+002,2.728470e+004,2.728470e+004,2.728470e+004,,7.970910e+002,2.182776e+004,2.182776e+004,2.182776e+004
6.896890e+002,2.748670e+004,2.748670e+004,2.748670e+004,,7.969910e+002,2.198936e+004,2.198936e+004,2.198936e+004
6.897890e+002,2.745700e+004,2.745700e+004,2.745700e+004,,7.968910e+002,2.196560e+004,2.196560e+004,2.196560e+004
6.898890e+002,2.768590e+004,2.768590e+004,2.768590e+004,,7.967910e+002,2.214872e+004,2.214872e+004,2.214872e+004
6.899890e+002,2.763430e+004,2.763430e+004,2.763430e+004,,7.966910e+002,2.210744e+004,2.210744e+004,2.210744e+004
6.900890e+002,2.767260e+004,2.767260e+004,2.767260e+004,,7.965910e+002,2.213808e+004,2.213808e+004,2.213808e+004
6.901890e+002,2.794430e+004,2.794430e+004,2.794430e+004,,7.964910e+002,2.235544e+004,2.235544e+004,2.235544e+004
6.902890e+002,2.787070e+004,2.787070e+004,2.787070e+004,,7.963910e+002,2.229656e+004,2.229656e+004,2.229656e+004
6.903890e+002,2.785750e+004,2.785750e+004,2.785750e+004,,7.962910e+002,2.228600e+004,2.228600e+004,2.228600e+004
6.904890e+002,2.803250e+004,2.803250e+004,2.803250e+004,,7.961910e+002,2.242600e+004,2.242600e+004,2.242600e+004
6.905890e+002,2.829170e+004,2.829170e+004,2.829170e+004,,7.960910e+002,2.263336e+004,2.263336e+004,2.263336e+004
6.906890e+002,2.828530e+004,2.828530e+004,2.828530e+004,,7.959910e+002,2.262824e+004,2.262824e+004,2.262824e+004
6.907890e+002,2.798790e+004,2.798790e+004,2.798790e+004,,7.958910e+002,2.239032e+004,2.239032e+004,2.239032e+004
6.908890e+002,2.801630e+004,2.801630e+004,2.801630e+004,,7.957910e+002,2.241304e+004,2.241304e+004,2.241304e+004
6.909890e+002,2.805480e+004,2.805480e+004,2.805480e+004,,7.956910e+002,2.244384e+004,2.244384e+004,2.244384e+004
6.910890e+002,2.770470e+004,2.770470e+004,2.770470e+004,,7.955910e+002,2.216376e+004,2.216376e+004,2.216376e+004
6.911890e+002,2.782770e+004,2.782770e+004,2.782770e+004,,7.954910e+002,2.226216e+004,2.226216e+004,2.226216e+004
6.912890e+002,2.770270e+004,2.770270e+004,2.770270e+004,,7.953910e+002,2.216216e+004,2.216216e+004,2.216216e+004
6.913890e+002,2.713400e+004,2.713400e+004,2.713400e+004,,7.952910e+002,2.170720e+004,2.170720e+004,2.170720e+004
6.914890e+002,2.718640e+004,2.718640e+004,2.718640e+004,,7.951910e+002,2.174912e+004,2.174912e+004,2.174912e+004
6.915890e+002,2.708790e+004,2.708790e+004,2.708790e+004,,7.950910e+002,2.167032e+004,2.167032e+004,2.167032e+004
6.916890e+002,2.690750e+004,2.690750e+004,2.690750e+004,,7.949910e+002,2.152600e+004,2.152600e+004,2.152600e+004
6.917890e+002,2.647320e+004,2.647320e+004,2.647320e+004,,7.948910e+002,2.117856e+004,2.117856e+004,2.117856e+004
6.918890e+002,2.647670e+004,2.647670e+004,2.647670e+004,,7.947910e+002,2.118136e+004,2.118136e+004,2.118136e+004
6.919890e+002,2.583410e+004,2.583410e+004,2.583410e+004,,7.946910e+002,2.066728e+004,2.066728e+004,2.066728e+004
6.920890e+002,2.576940e+004,2.576940e+004,2.576940e+004,,7.945910e+002,2.061552e+004,2.061552e+004,2.061552e+004
6.921890e+002,2.583100e+004,2.583100e+004,2.583100e+004,,7.944910e+002,2.066480e+004,2.066480e+004,2.066480e+004
6.922890e+002,2.543920e+004,2.543920e+004,2.543920e+004,,7.943910e+002,2.035136e+004,2.035136e+004,2.035136e+004
6.923890e+002,2.504820e+004,2.504820e+004,2.504820e+004,,7.942910e+002,2.003856e+004,2.003856e+004,2.003856e+004
6.924890e+002,2.524530e+004,2.524530e+004,2.524530e+004,,7.941910e+002,2.019624e+004,2.019624e+004,2.019624e+004
6.925890e+002,2.480400e+004,2.480400e+004,2.480400e+004,,7.940910e+002,1.984320e+004,1.984320e+004,1.984320e+004
6.926890e+002,2.479570e+004,2.479570e+004,2.479570e+004,,7.939910e+002,1.983656e+004,1.983656e+004,1.983656e+004
6.927890e+002,2.449510e+004,2.449510e+004,2.449510e+004,,7.938910e+002,1.959608e+004,1.959608e+004,1.959608e+004
6.928890e+002,2.460840e+004,2.460840e+004,2.460840e+004,,7.937910e+002,1.968672e+004,1.968672e+004,1.968672e+004
6.929890e+002,2.401730e+004,2.401730e+004,2.401730e+004,,7.936910e+002,1.921384e+004,1.921384e+004,1.921384e+004
6.930890e+002,2.385810e+004,2.385810e+004,2.385810e+004,,7.935910e+002,1.908648e+004,1.908648e+004,1.908648e+004
6.931890e+002,2.366440e+004,2.366440e+004,2.366440e+004,,7.934910e+002,1.893152e+004,1.893152e+004,1.893152e+004
6.932890e+002,2.382480e+004,2.382480e+004,2.382480e+004,,7.933910e+002,1.905984e+004,1.905984e+004,1.905984e+004
6.933890e+002,2.357890e+004,2.357890e+004,2.357890e+004,,7.932910e+002,1.886312e+004,1.886312e+004,1.886312e+004
6.934890e+002,2.332480e+004,2.332480e+004,2.332480e+004,,7.931910e+002,1.865984e+004,1.865984e+004,1.865984e+004
6.935890e+002,2.335880e+004,2.335880e+004,2.335880e+004,,7.930910e+002,1.868704e+004,1.868704e+004,1.868704e+004
6.936890e+002,2.306580e+004,2.306580e+004,2.306580e+004,,7.929910e+002,1.845264e+004,1.845264e+004,1.845264e+004
6.937890e+002,2.291480e+004,2.291480e+004,2.291480e+004,,7.928910e+002,1.833184e+004,1.833184e+004,1.833184e+004
6.938890e+002,2.307810e+004,2.307810e+004,2.307810e+004,,7.927910e+002,1.846248e+004,1.846248e+004,1.846248e+004
6.939890e+002,2.274520e+004,2.274520e+004,2.274520e+004,,7.926910e+002,1.819616e+004,1.819616e+004,1.819616e+004
6.940890e+002,2.264310e+004,2.264310e+004,2.264310e+004,,7.925910e+002,1.811448e+004,1.811448e+004,1.811448e+004
6.941890e+002,2.284520e+004,2.284520e+004,2.284520e+004,,7.924910e+002,1.827616e+004,1.827616e+004,1.827616e+004
6.942890e+002,2.262450e+004,2.262450e+004,2.262450e+004,,7.923910e+002,1.809960e+004,1.809960e+004,1.809960e+004
6.943890e+002,2.227120e+004,2.227120e+004,2.227120e+004,,7.922910e+002,1.781696e+004,1.781696e+004,1.781696e+004
6.944890e+002,2.230340e+004,2.230340e+004,2.230340e+004,,7.921910e+002,1.784272e+004,1.784272e+004,1.784272e+004
6.945890e+002,2.256980e+004,2.256980e+004,2.256980e+004,,7.920910e+002,1.805584e+004,1.805584e+004,1.805584e+004
6.946890e+002,2.223410e+004,2.223410e+004,2.223410e+004,,7.919910e+002,1.778728e+004,1.778728e+004,1.778728e+004
6.947890e+002,2.243470e+004,2.243470e+004,2.243470e+004,,7.918910e+002,1.794776e+004,1.794776e+004,1.794776e+004
6.948890e+002,2.233520e+004,2.235132e+004,2.235132e+004,,7.917910e+002,1.786816e+004,1.788106e+004,1.788106e+004
6.949890e+002,2.212310e+004,2.234986e+004,2.234986e+004,,7.916910e+002,1.769848e+004,1.787989e+004,1.787989e+004
6.950890e+002,2.251560e+004,2.234878e+004,2.234878e+004,,7.915910e+002,1.801248e+004,1.787902e+004,1.787902e+004
6.951890e+002,2.226270e+004,2.234823e+004,2.234823e+004,,7.914910e+002,1.781016e+004,1.787858e+004,1.787858e+004
6.952890e+002,2.249020e+004,2.234731e+004,2.234731e+004,,7.913910e+002,1.799216e+004,1.787784e+004,1.787784e+004
6.953890e+002,2.232570e+004,2.234717e+004,2.234717e+004,,7.912910e+002,1.786056e+004,1.787773e+004,1.787773e+004
6.954890e+002,2.246500e+004,2.234640e+004,2.234640e+004,,7.911910e+002,1.797200e+004,1.787712e+004,1.787712e+004
6.955890e+002,2.246680e+004,2.234562e+004,2.234562e+004,,7.910910e+002,1.797344e+004,1.787649e+004,1.787649e+004
6.956890e+002,2.241560e+004,2.234516e+004,2.234516e+004,,7.909910e+002,1.793248e+004,1.787613e+004,1.787613e+004
6.957890e+002,2.274860e+004,2.234254e+004,2.234254e+004,,7.908910e+002,1.819888e+004,1.787403e+004,1.787403e+004
6.958890e+002,2.272870e+004,2.234003e+004,2.234003e+004,,7.907910e+002,1.818296e+004,1.787202e+004,1.787202e+004
6.959890e+002,2.275830e+004,2.233731e+004,2.233731e+004,,7.906910e+002,1.820664e+004,1.786985e+004,1.786985e+004
6.960890e+002,2.238790e+004,2.233698e+004,2.233698e+004,,7.905910e+002,1.791032e+004,1.786958e+004,1.786958e+004
6.961890e+002,2.288250e+004,2.233343e+004,2.233343e+004,,7.904910e+002,1.830600e+004,1.786675e+004,1.786675e+004
6.962890e+002,2.275040e+004,2.233072e+004,2.233072e+004,,7.903910e+002,1.820032e+004,1.786458e+004,1.786458e+004
6.963890e+002,2.304160e+004,2.232610e+004,2.232610e+004,,7.902910e+002,1.843328e+004,1.786088e+004,1.786088e+004
6.964890e+002,2.276140e+004,2.232327e+004,2.232327e+004,,7.901910e+002,1.820912e+004,1.785862e+004,1.785862e+004
6.965890e+002,2.315510e+004,2.231786e+004,2.231786e+004,,7.900910e+002,1.852408e+004,1.785429e+004,1.785429e+004
6.966890e+002,2.302940e+004,2.231324e+004,2.231324e+004,,7.899910e+002,1.842352e+004,1.785059e+004,1.785059e+004
6.967890e+002,2.310000e+004,2.230812e+004,2.230812e+004,,7.898910e+002,1.848000e+004,1.784650e+004,1.784650e+004
6.968890e+002,2.310280e+004,2.230296e+004,2.230296e+004,,7.897910e+002,1.848224e+004,1.784236e+004,1.784236e+004
6.969890e+002,2.313520e+004,2.229755e+004,2.229755e+004,,7.896910e+002,1.850816e+004,1.783804e+004,1.783804e+004
6.970890e+002,2.332780e+004,2.229085e+004,2.229085e+004,,7.895910e+002,1.866224e+004,1.783268e+004,1.783268e+004
6.971890e+002,2.319390e+004,2.228498e+004,2.228498e+004,,7.894910e+002,1.855512e+004,1.782798e+004,1.782798e+004
6.972890e+002,2.353590e+004,2.227684e+004,2.227684e+004,,7.893910e+002,1.882872e+004,1.782147e+004,1.782147e+004
6.973890e+002,2.370870e+004,2.226753e+004,2.226753e+004,,7.892910e+002,1.896696e+004,1.781403e+004,1.781403e+004
6.974890e+002,2.368490e+004,2.225832e+004,2.225832e+004,,7.891910e+002,1.894792e+004,1.780666e+004,1.780666e+004
6.975890e+002,2.355010e+004,2.224992e+004,2.224992e+004,,7.890910e+002,1.884008e+004,1.779994e+004,1.779994e+004
6.976890e+002,2.361700e+004,2.224103e+004,2.224103e+004,,7.889910e+002,1.889360e+004,1.779283e+004,1.779283e+004
6.977890e+002,2.366580e+004,2.223177e+004,2.223177e+004,,7.888910e+002,1.893264e+004,1.778542e+004,1.778542e+004
6.978890e+002,2.423960e+004,2.221872e+004,2.221872e+004,,7.887910e+002,1.939168e+004,1.777497e+004,1.777497e+004
6.979890e+002,2.412690e+004,2.220631e+004,2.220631e+004,,7.886910e+002,1.930152e+004,1.776505e+004,1.776505e+004
6.980890e+002,2.409780e+004,2.219401e+004,2.219401e+004,,7.885910e+002,1.927824e+004,1.775521e+004,1.775521e+004
6.981890e+002,2.430680e+004,2.218028e+004,2.218028e+004,,7.884910e+002,1.944544e+004,1.774422e+004,1.774422e+004
6.982890e+002,2.439250e+004,2.216589e+004,2.216589e+004,,7.883910e+002,1.951400e+004,1.773272e+004,1.773272e+004
6.983890e+002,2.439250e+004,2.215142e+004,2.215142e+004,,7.882910e+002,1.951400e+004,1.772113e+004,1.772113e+004
6.984890e+002,2.465370e+004,2.213515e+004,2.213515e+004,,7.881910e+002,1.972296e+004,1.770812e+004,1.770812e+004
6.985890e+002,2.476330e+004,2.211806e+004,2.211806e+004,,7.880910e+002,1.981064e+004,1.769445e+004,1.769445e+004
6.986890e+002,2.462390e+004,2.210177e+004,2.210177e+004,,7.879910e+002,1.969912e+004,1.768142e+004,1.768142e+004
6.987890e+002,2.470170e+004,2.208487e+004,2.208487e+004,,7.878910e+002,1.976136e+004,1.766790e+004,1.766790e+004
6.988890e+002,2.479890e+004,2.206722e+004,2.206722e+004,,7.877910e+002,1.983912e+004,1.765378e+004,1.765378e+004
6.989890e+002,2.513960e+004,2.204725e+004,2.204725e+004,,7.876910e+002,2.011168e+004,1.763780e+004,1.763780e+004
6.990890e+002,2.533210e+004,2.202589e+004,2.202589e+004,,7.875910e+002,2.026568e+004,1.762071e+004,1.762071e+004
6.991890e+002,2.532350e+004,2.200445e+004,2.200445e+004,,7.874910e+002,2.025880e+004,1.760356e+004,1.760356e+004
6.992890e+002,2.528320e+004,2.198314e+004,2.198314e+004,,7.873910e+002,2.022656e+004,1.758651e+004,1.758651e+004
6.993890e+002,2.552370e+004,2.196012e+004,2.196012e+004,,7.872910e+002,2.041896e+004,1.756809e+004,1.756809e+004
6.994890e+002,2.564120e+004,2.193619e+004,2.193619e+004,,7.871910e+002,2.051296e+004,1.754895e+004,1.754895e+004
6.995890e+002,2.580670e+004,2.191102e+004,2.191102e+004,,7.870910e+002,2.064536e+004,1.752882e+004,1.752882e+004
6.996890e+002,2.619120e+004,2.188320e+004,2.188320e+004,,7.869910e+002,2.095296e+004,1.750656e+004,1.750656e+004
6.997890e+002,2.617420e+004,2.185530e+004,2.185530e+004,,7.868910e+002,2.093936e+004,1.748424e+004,1.748424e+004
6.998890e+002,2.600400e+004,2.182833e+004,2.182833e+004,,7.867910e+002,2.080320e+004,1.746266e+004,1.746266e+004
6.999890e+002,2.661820e+004,2.179718e+004,2.179718e+004,,7.866910e+002,2.129456e+004,1.743775e+004,1.743775e+004
7.000890e+002,2.630110e+004,2.176790e+004,2.176790e+004,,7.865910e+002,2.104088e+004,1.741432e+004,1.741432e+004
7.001890e+002,2.651230e+004,2.173706e+004,2.173706e+004,,7.864910e+002,2.120984e+004,1.738965e+004,1.738965e+004
7.002890e+002,2.654720e+004,2.170578e+004,2.170578e+004,,7.863910e+002,2.123776e+004,1.736463e+004,1.736463e+004
7.003890e+002,2.660960e+004,2.167390e+004,2.167390e+004,,7.862910e+002,2.128768e+004,1.733912e+004,1.733912e+004
7.004890e+002,2.667950e+004,2.164136e+004,2.164136e+004,,7.861910e+002,2.134360e+004,1.731309e+004,1.731309e+004
7.005890e+002,2.681880e+004,2.160770e+004,2.160770e+004,,7.860910e+002,2.145504e+004,1.728616e+004,1.728616e+004
7.006890e+002,2.669330e+004,2.157464e+004,2.157464e+004,,7.859910e+002,2.135464e+004,1.725971e+004,1.725971e+004
7.007890e+002,2.699200e+004,2.153942e+004,2.153942e+004,,7.858910e+002,2.159360e+004,1.723153e+004,1.723153e+004
7.008890e+002,2.703080e+004,2.150371e+004,2.150371e+004,,7.857910e+002,2.162464e+004,1.720297e+004,1.720297e+004
7.009890e+002,2.739180e+004,2.146543e+004,2.146543e+004,,7.856910e+002,2.191344e+004,1.717235e+004,1.717235e+004
7.010890e+002,2.713760e+004,2.142856e+004,2.142856e+004,,7.855910e+002,2.171008e+004,1.714284e+004,1.714284e+004
7.011890e+002,2.702240e+004,2.139219e+004,2.139219e+004,,7.854910e+002,2.161792e+004,1.711375e+004,1.711375e+004
7.012890e+002,2.692580e+004,2.135621e+004,2.135621e+004,,7.853910e+002,2.154064e+004,1.708497e+004,1.708497e+004
7.013890e+002,2.755030e+004,2.131594e+004,2.131594e+004,,7.852910e+002,2.204024e+004,1.705275e+004,1.705275e+004
7.014890e+002,2.712840e+004,2.127815e+004,2.127815e+004,,7.851910e+002,2.170272e+004,1.702252e+004,1.702252e+004
7.015890e+002,2.704730e+004,2.124064e+004,2.124064e+004,,7.850910e+002,2.163784e+004,1.699252e+004,1.699252e+004
7.016890e+002,2.716960e+004,2.120210e+004,2.120210e+004,,7.849910e+002,2.173568e+004,1.696168e+004,1.696168e+004
7.017890e+002,2.678000e+004,2.116583e+004,2.116583e+004,,7.848910e+002,2.142400e+004,1.693267e+004,1.693267e+004
7.018890e+002,2.701700e+004,2.112779e+004,2.112779e+004,,7.847910e+002,2.161360e+004,1.690223e+004,1.690223e+004
7.019890e+002,2.676230e+004,2.109116e+004,2.109116e+004,,7.846910e+002,2.140984e+004,1.687293e+004,1.687293e+004
7.020890e+002,2.692390e+004,2.105324e+004,2.105324e+004,,7.845910e+002,2.153912e+004,1.684259e+004,1.684259e+004
7.021890e+002,2.684740e+004,2.101557e+004,2.101557e+004,,7.844910e+002,2.147792e+004,1.681246e+004,1.681246e+004
7.022890e+002,2.689260e+004,2.097736e+004,2.097736e+004,,7.843910e+002,2.151408e+004,1.678189e+004,1.678189e+004
7.023890e+002,2.674120e+004,2.093989e+004,2.093989e+004,,7.842910e+002,2.139296e+004,1.675191e+004,1.675191e+004
7.024890e+002,2.667880e+004,2.090258e+004,2.090258e+004,,7.841910e+002,2.134304e+004,1.672206e+004,1.672206e+004
7.025890e+002,2.652650e+004,2.086601e+004,2.086601e+004,,7.840910e+002,2.122120e+004,1.669281e+004,1.669281e+004
7.026890e+002,2.665620e+004,2.082837e+004,2.082837e+004,,7.839910e+002,2.132496e+004,1.666270e+004,1.666270e+004
7.027890e+002,2.655870e+004,2.079111e+004,2.079111e+004,,7.838910e+002,2.124696e+004,1.663289e+004,1.663289e+004
7.028890e+002,2.624240e+004,2.075567e+004,2.075567e+004,,7.837910e+002,2.099392e+004,1.660454e+004,1.660454e+004
7.029890e+002,2.657360e+004,2.071785e+004,2.071785e+004,,7.836910e+002,2.125888e+004,1.657428e+004,1.657428e+004
7.030890e+002,2.691320e+004,2.067757e+004,2.067757e+004,,7.835910e+002,2.153056e+004,1.654206e+004,1.654206e+004
7.031890e+002,2.673040e+004,2.063822e+004,2.063822e+004,,7.834910e+002,2.138432e+004,1.651057e+004,1.651057e+004
7.032890e+002,2.686650e+004,2.059773e+004,2.059773e+004,,7.833910e+002,2.149320e+004,1.647818e+004,1.647818e+004
7.033890e+002,2.694730e+004,2.055644e+004,2.055644e+004,,7.832910e+002,2.155784e+004,1.644516e+004,1.644516e+004
7.034890e+002,2.701870e+004,2.051443e+004,2.051443e+004,,7.831910e+002,2.161496e+004,1.641154e+004,1.641154e+004
7.035890e+002,2.719770e+004,2.047098e+004,2.047098e+004,,7.830910e+002,2.175816e+004,1.637678e+004,1.637678e+004
7.036890e+002,2.711830e+004,2.042776e+004,2.042776e+004,,7.829910e+002,2.169464e+004,1.634221e+004,1.634221e+004
7.037890e+002,2.739060e+004,2.038250e+004,2.038250e+004,,7.828910e+002,2.191248e+004,1.630600e+004,1.630600e+004
7.038890e+002,2.755230e+004,2.033588e+004,2.033588e+004,,7.827910e+002,2.204184e+004,1.626871e+004,1.626871e+004
7.039890e+002,2.756560e+004,2.028888e+004,2.028888e+004,,7.826910e+002,2.205248e+004,1.623110e+004,1.623110e+004
7.040890e+002,2.809900e+004,2.023810e+004,2.023810e+004,,7.825910e+002,2.247920e+004,1.619048e+004,1.619048e+004
7.041890e+002,2.829640e+004,2.018571e+004,2.018571e+004,,7.824910e+002,2.263712e+004,1.614857e+004,1.614857e+004
7.042890e+002,2.814900e+004,2.013394e+004,2.013394e+004,,7.823910e+002,2.251920e+004,1.610715e+004,1.610715e+004
7.043890e+002,2.843380e+004,2.007998e+004,2.007998e+004,,7.822910e+002,2.274704e+004,1.606398e+004,1.606398e+004
7.044890e+002,2.866470e+004,2.002417e+004,2.002417e+004,,7.821910e+002,2.293176e+004,1.601933e+004,1.601933e+004
7.045890e+002,2.917510e+004,1.996467e+004,1.996467e+004,,7.820910e+002,2.334008e+004,1.597174e+004,1.597174e+004
7.046890e+002,2.928670e+004,1.990407e+004,1.990407e+004,,7.819910e+002,2.342936e+004,1.592325e+004,1.592325e+004
7.047890e+002,2.995990e+004,1.983869e+004,1.983869e+004,,7.818910e+002,2.396792e+004,1.587095e+004,1.587095e+004
7.048890e+002,2.999260e+004,1.977267e+004,1.977267e+004,,7.817910e+002,2.399408e+004,1.581814e+004,1.581814e+004
7.049890e+002,3.006380e+004,1.970577e+004,1.970577e+004,,7.816910e+002,2.405104e+004,1.576461e+004,1.576461e+004
7.050890e+002,3.039650e+004,1.963626e+004,1.963626e+004,,7.815910e+002,2.431720e+004,1.570901e+004,1.570901e+004
7.051890e+002,3.066200e+004,1.956458e+004,1.956458e+004,,7.814910e+002,2.452960e+004,1.565166e+004,1.565166e+004
7.052890e+002,3.065520e+004,1.949248e+004,1.949248e+004,,7.813910e+002,2.452416e+004,1.559398e+004,1.559398e+004
7.053890e+002,3.142940e+004,1.941487e+004,1.941487e+004,,7.812910e+002,2.514352e+004,1.553190e+004,1.553190e+004
7.054890e+002,3.129320e+004,1.933764e+004,1.933764e+004,,7.811910e+002,2.503456e+004,1.547011e+004,1.547011e+004
7.055890e+002,3.169320e+004,1.925731e+004,1.925731e+004,,7.810910e+002,2.535456e+004,1.540585e+004,1.540585e+004
7.056890e+002,3.202800e+004,1.917429e+004,1.917429e+004,,7.809910e+002,2.562240e+004,1.533943e+004,1.533943e+004
7.057890e+002,3.221700e+004,1.908949e+004,1.908949e+004,,7.808910e+002,2.577360e+004,1.527159e+004,1.527159e+004
7.058890e+002,3.250140e+004,1.900230e+004,1.900230e+004,,7.807910e+002,2.600112e+004,1.520184e+004,1.520184e+004
7.059890e+002,3.221740e+004,1.891638e+004,1.891638e+004,,7.806910e+002,2.577392e+004,1.513310e+004,1.513310e+004
7.060890e+002,3.274190e+004,1.882649e+004,1.882649e+004,,7.805910e+002,2.619352e+004,1.506119e+004,1.506119e+004
7.061890e+002,3.284590e+004,1.873535e+004,1.873535e+004,,7.804910e+002,2.627672e+004,1.498828e+004,1.498828e+004
7.062890e+002,3.302670e+004,1.864243e+004,1.864243e+004,,7.803910e+002,2.642136e+004,1.491395e+004,1.491395e+004
7.063890e+002,3.261030e+004,1.855162e+004,1.855162e+004,,7.802910e+002,2.608824e+004,1.484130e+004,1.484130e+004
7.064890e+002,3.255170e+004,1.846060e+004,1.846060e+004,,7.801910e+002,2.604136e+004,1.476848e+004,1.476848e+004
7.065890e+002,3.278540e+004,1.836747e+004,1.836747e+004,,7.800910e+002,2.622832e+004,1.469398e+004,1.469398e+004
7.066890e+002,3.191410e+004,1.827940e+004,1.827940e+004,,7.799910e+002,2.553128e+004,1.462352e+004,1.462352e+004
7.067890e+002,3.193200e+004,1.819064e+004,1.819064e+004,,7.798910e+002,2.554560e+004,1.455251e+004,1.455251e+004
7.068890e+002,3.147650e+004,1.810426e+004,1.810426e+004,,7.797910e+002,2.518120e+004,1.448341e+004,1.448341e+004
7.069890e+002,3.112080e+004,1.801964e+004,1.801964e+004,,7.796910e+002,2.489664e+004,1.441571e+004,1.441571e+004
7.070890e+002,3.073470e+004,1.793697e+004,1.793697e+004,,7.795910e+002,2.458776e+004,1.434958e+004,1.434958e+004
7.071890e+002,3.017270e+004,1.785742e+004,1.785742e+004,,7.794910e+002,2.413816e+004,1.428594e+004,1.428594e+004
7.072890e+002,2.994190e+004,1.777886e+004,1.777886e+004,,7.793910e+002,2.395352e+004,1.422308e+004,1.422308e+004
7.073890e+002,2.950260e+004,1.770263e+004,1.770263e+004,,7.792910e+002,2.360208e+004,1.416211e+004,1.416211e+004
7.074890e+002,2.875740e+004,1.763076e+004,1.763076e+004,,7.791910e+002,2.300592e+004,1.410461e+004,1.410461e+004
7.075890e+002,2.838070e+004,1.756087e+004,1.756087e+004,,7.790910e+002,2.270456e+004,1.404870e+004,1.404870e+004
7.076890e+002,2.802800e+004,1.749282e+004,1.749282e+004,,7.789910e+002,2.242240e+004,1.399426e+004,1.399426e+004
7.077890e+002,2.730040e+004,1.742906e+004,1.742906e+004,,7.788910e+002,2.184032e+004,1.394325e+004,1.394325e+004
7.078890e+002,2.667760e+004,1.736893e+004,1.736893e+004,,7.787910e+002,2.134208e+004,1.389515e+004,1.389515e+004
7.079890e+002,2.631730e+004,1.731075e+004,1.731075e+004,,7.786910e+002,2.105384e+004,1.384860e+004,1.384860e+004
7.080890e+002,2.569080e+004,1.725627e+004,1.725627e+004,,7.785910e+002,2.055264e+004,1.380502e+004,1.380502e+004
7.081890e+002,2.576360e+004,1.720096e+004,1.720096e+004,,7.784910e+002,2.061088e+004,1.376077e+004,1.376077e+004
7.082890e+002,2.526590e+004,1.714853e+004,1.714853e+004,,7.783910e+002,2.021272e+004,1.371882e+004,1.371882e+004
7.083890e+002,2.472090e+004,1.709930e+004,1.709930e+004,,7.782910e+002,1.977672e+004,1.367944e+004,1.367944e+004
7.084890e+002,2.431910e+004,1.705236e+004,1.705236e+004,,7.781910e+002,1.945528e+004,1.364189e+004,1.364189e+004
7.085890e+002,2.389760e+004,1.700786e+004,1.700786e+004,,7.780910e+002,1.911808e+004,1.360628e+004,1.360628e+004
7.086890e+002,2.384350e+004,1.696341e+004,1.696341e+004,,7.779910e+002,1.907480e+004,1.357073e+004,1.357073e+004
7.087890e+002,2.354830e+004,1.692060e+004,1.692060e+004,,7.778910e+002,1.883864e+004,1.353648e+004,1.353648e+004
7.088890e+002,2.278710e+004,1.688246e+004,1.688246e+004,,7.777910e+002,1.822968e+004,1.350597e+004,1.350597e+004
7.089890e+002,2.270130e+004,1.684463e+004,1.684463e+004,,7.776910e+002,1.816104e+004,1.347571e+004,1.347571e+004
7.090890e+002,2.236120e+004,1.680877e+004,1.680877e+004,,7.775910e+002,1.788896e+004,1.344701e+004,1.344701e+004
7.091890e+002,2.240140e+004,1.677241e+004,1.677241e+004,,7.774910e+002,1.792112e+004,1.341793e+004,1.341793e+004
7.092890e+002,2.171410e+004,1.674028e+004,1.674028e+004,,7.773910e+002,1.737128e+004,1.339222e+004,1.339222e+004
7.093890e+002,2.134860e+004,1.671032e+004,1.671032e+004,,7.772910e+002,1.707888e+004,1.336826e+004,1.336826e+004
7.094890e+002,2.123290e+004,1.668092e+004,1.668092e+004,,7.771910e+002,1.698632e+004,1.334473e+004,1.334473e+004
7.095890e+002,2.089870e+004,1.665349e+004,1.665349e+004,,7.770910e+002,1.671896e+004,1.332280e+004,1.332280e+004
7.096890e+002,2.053350e+004,1.662827e+004,1.662827e+004,,7.769910e+002,1.642680e+004,1.330262e+004,1.330262e+004
7.097890e+002,2.066080e+004,1.660205e+004,1.660205e+004,,7.768910e+002,1.652864e+004,1.328164e+004,1.328164e+004
7.098890e+002,2.022940e+004,1.657847e+004,1.657847e+004,,7.767910e+002,1.618352e+004,1.326278e+004,1.326278e+004
7.099890e+002,2.017870e+004,1.655506e+004,1.655506e+004,,7.766910e+002,1.614296e+004,1.324405e+004,1.324405e+004
7.100890e+002,1.978430e+004,1.653407e+004,1.653407e+004,,7.765910e+002,1.582744e+004,1.322725e+004,1.322725e+004
7.101890e+002,1.965380e+004,1.651379e+004,1.651379e+004,,7.764910e+002,1.572304e+004,1.321103e+004,1.321103e+004
7.102890e+002,1.933530e+004,1.649544e+004,1.649544e+004,,7.763910e+002,1.546824e+004,1.319635e+004,1.319635e+004
7.103890e+002,1.971610e+004,1.647450e+004,1.647450e+004,,7.762910e+002,1.577288e+004,1.317960e+004,1.317960e+004
7.104890e+002,1.917220e+004,1.645696e+004,1.645696e+004,,7.761910e+002,1.533776e+004,1.316557e+004,1.316557e+004
7.105890e+002,1.900030e+004,1.644043e+004,1.644043e+004,,7.760910e+002,1.520024e+004,1.315234e+004,1.315234e+004
7.106890e+002,1.915450e+004,1.642278e+004,1.642278e+004,,7.759910e+002,1.532360e+004,1.313823e+004,1.313823e+004
7.107890e+002,1.914350e+004,1.640509e+004,1.640509e+004,,7.758910e+002,1.531480e+004,1.312408e+004,1.312408e+004
7.108890e+002,1.905270e+004,1.638788e+004,1.638788e+004,,7.757910e+002,1.524216e+004,1.311031e+004,1.311031e+004
7.109890e+002,1.891410e+004,1.637146e+004,1.637146e+004,,7.756910e+002,1.513128e+004,1.309717e+004,1.309717e+004
7.110890e+002,1.886070e+004,1.635527e+004,1.635527e+004,,7.755910e+002,1.508856e+004,1.308422e+004,1.308422e+004
7.111890e+002,1.909610e+004,1.633745e+004,1.633745e+004,,7.754910e+002,1.527688e+004,1.306996e+004,1.306996e+004
7.112890e+002,1.856940e+004,1.632294e+004,1.632294e+004,,7.753910e+002,1.485552e+004,1.305836e+004,1.305836e+004
7.113890e+002,1.861630e+004,1.630803e+004,1.630803e+004,,7.752910e+002,1.489304e+004,1.304643e+004,1.304643e+004
7.114890e+002,1.858800e+004,1.629321e+004,1.629321e+004,,7.751910e+002,1.487040e+004,1.303457e+004,1.303457e+004
7.115890e+002,1.852250e+004,1.627872e+004,1.627872e+004,,7.750910e+002,1.481800e+004,1.302297e+004,1.302297e+004
7.116890e+002,1.818490e+004,1.626632e+004,1.626632e+004,,7.749910e+002,1.454792e+004,1.301306e+004,1.301306e+004
7.117890e+002,1.877920e+004,1.624999e+004,1.624999e+004,,7.748910e+002,1.502336e+004,1.299999e+004,1.299999e+004
7.118890e+002,1.856790e+004,1.623492e+004,1.623492e+004,,7.747910e+002,1.485432e+004,1.298793e+004,1.298793e+004
7.119890e+002,1.853240e+004,1.621998e+004,1.621998e+004,,7.746910e+002,1.482592e+004,1.297598e+004,1.297598e+004
7.120890e+002,1.814850e+004,1.620744e+004,1.620744e+004,,7.745910e+002,1.451880e+004,1.296595e+004,1.296595e+004
7.121890e+002,1.854010e+004,1.619228e+004,1.619228e+004,,7.744910e+002,1.483208e+004,1.295382e+004,1.295382e+004
7.122890e+002,1.841970e+004,1.617780e+004,1.617780e+004,,7.743910e+002,1.473576e+004,1.294224e+004,1.294224e+004
7.123890e+002,1.851900e+004,1.616258e+004,1.616258e+004,,7.742910e+002,1.481520e+004,1.293006e+004,1.293006e+004
7.124890e+002,1.839090e+004,1.614809e+004,1.614809e+004,,7.741910e+002,1.471272e+004,1.291847e+004,1.291847e+004
7.125890e+002,1.818280e+004,1.613486e+004,1.613486e+004,,7.740910e+002,1.454624e+004,1.290789e+004,1.290789e+004
7.126890e+002,1.831650e+004,1.612068e+004,1.612068e+004,,7.739910e+002,1.465320e+004,1.289654e+004,1.289654e+004
7.127890e+002,1.819010e+004,1.610722e+004,1.610722e+004,,7.738910e+002,1.455208e+004,1.288578e+004,1.288578e+004
7.128890e+002,1.828770e+004,1.609305e+004,1.609305e+004,,7.737910e+002,1.463016e+004,1.287444e+004,1.287444e+004
7.129890e+002,1.796060e+004,1.608090e+004,1.608090e+004,,7.736910e+002,1.436848e+004,1.286472e+004,1.286472e+004
7.130890e+002,1.816130e+004,1.606738e+004,1.606738e+004,,7.735910e+002,1.452904e+004,1.285390e+004,1.285390e+004
7.131890e+002,1.822640e+004,1.605334e+004,1.605334e+004,,7.734910e+002,1.458112e+004,1.284267e+004,1.284267e+004
7.132890e+002,1.790600e+004,1.604130e+004,1.604130e+004,,7.733910e+002,1.432480e+004,1.283304e+004,1.283304e+004
7.133890e+002,1.802440e+004,1.602840e+004,1.602840e+004,,7.732910e+002,1.441952e+004,1.282272e+004,1.282272e+004
7.134890e+002,1.802250e+004,1.601544e+004,1.601544e+004,,7.731910e+002,1.441800e+004,1.281235e+004,1.281235e+004
7.135890e+002,1.826330e+004,1.600083e+004,1.600083e+004,,7.730910e+002,1.461064e+004,1.280066e+004,1.280066e+004
7.136890e+002,1.810060e+004,1.598717e+004,1.598717e+004,,7.729910e+002,1.448048e+004,1.278974e+004,1.278974e+004
7.137890e+002,1.806350e+004,1.597367e+004,1.597367e+004,,7.728910e+002,1.445080e+004,1.277894e+004,1.277894e+004
7.138890e+002,1.805630e+004,1.596013e+004,1.596013e+004,,7.727910e+002,1.444504e+004,1.276811e+004,1.276811e+004
7.139890e+002,1.794230e+004,1.594725e+004,1.594725e+004,,7.726910e+002,1.435384e+004,1.275780e+004,1.275780e+004
7.140890e+002,1.781920e+004,1.593508e+004,1.593508e+004,,7.725910e+002,1.425536e+004,1.274806e+004,1.274806e+004
7.141890e+002,1.770670e+004,1.592356e+004,1.592356e+004,,7.724910e+002,1.416536e+004,1.273885e+004,1.273885e+004
7.142890e+002,1.767890e+004,1.591215e+004,1.591215e+004,,7.723910e+002,1.414312e+004,1.272972e+004,1.272972e+004
7.143890e+002,1.768930e+004,1.590059e+004,1.590059e+004,,7.722910e+002,1.415144e+004,1.272047e+004,1.272047e+004
7.144890e+002,1.777690e+004,1.588839e+004,1.588839e+004,,7.721910e+002,1.422152e+004,1.271072e+004,1.271072e+004
7.145890e+002,1.785890e+004,1.587558e+004,1.587558e+004,,7.720910e+002,1.428712e+004,1.270047e+004,1.270047e+004
7.146890e+002,1.775390e+004,1.586337e+004,1.586337e+004,,7.719910e+002,1.420312e+004,1.269070e+004,1.269070e+004
7.147890e+002,1.782030e+004,1.585065e+004,1.585065e+004,,7.718910e+002,1.425624e+004,1.268052e+004,1.268052e+004
7.148890e+002,1.758080e+004,1.583940e+004,1.583940e+004,,7.717910e+002,1.406464e+004,1.267152e+004,1.267152e+004
7.149890e+002,1.788880e+004,1.582608e+004,1.582608e+004,,7.716910e+002,1.431104e+004,1.266086e+004,1.266086e+004
7.150890e+002,1.753230e+004,1.581498e+004,1.581498e+004,,7.715910e+002,1.402584e+004,1.265199e+004,1.265199e+004
7.151890e+002,1.742830e+004,1.580450e+004,1.580450e+004,,7.714910e+002,1.394264e+004,1.264360e+004,1.264360e+004
7.152890e+002,1.732910e+004,1.579458e+004,1.579458e+004,,7.713910e+002,1.386328e+004,1.263567e+004,1.263567e+004
7.153890e+002,1.744660e+004,1.578384e+004,1.578384e+004,,7.712910e+002,1.395728e+004,1.262707e+004,1.262707e+004
7.154890e+002,1.736160e+004,1.577359e+004,1.577359e+004,,7.711910e+002,1.388928e+004,1.261887e+004,1.261887e+004
7.155890e+002,1.722700e+004,1.576414e+004,1.576414e+004,,7.710910e+002,1.378160e+004,1.261131e+004,1.261131e+004
7.156890e+002,1.744820e+004,1.575319e+004,1.575319e+004,,7.709910e+002,1.395856e+004,1.260255e+004,1.260255e+004
7.157890e+002,1.737200e+004,1.574266e+004,1.574266e+004,,7.708910e+002,1.389760e+004,1.259413e+004,1.259413e+004
7.158890e+002,1.738680e+004,1.573197e+004,1.573197e+004,,7.707910e+002,1.390944e+004,1.258558e+004,1.258558e+004
7.159890e+002,1.723260e+004,1.572222e+004,1.572222e+004,,7.706910e+002,1.378608e+004,1.257777e+004,1.257777e+004
7.160890e+002,1.722970e+004,1.571242e+004,1.571242e+004,,7.705910e+002,1.378376e+004,1.256993e+004,1.256993e+004
7.161890e+002,1.708700e+004,1.570348e+004,1.570348e+004,,7.704910e+002,1.366960e+004,1.256278e+004,1.256278e+004
7.162890e+002,1.733760e+004,1.569286e+004,1.569286e+004,,7.703910e+002,1.387008e+004,1.255428e+004,1.255428e+004
7.163890e+002,1.716300e+004,1.568330e+004,1.568330e+004,,7.702910e+002,1.373040e+004,1.254664e+004,1.254664e+004
7.164890e+002,1.721420e+004,1.567334e+004,1.567334e+004,,7.701910e+002,1.377136e+004,1.253868e+004,1.253868e+004
7.165890e+002,1.673500e+004,1.566644e+004,1.566644e+004,,7.700910e+002,1.338800e+004,1.253315e+004,1.253315e+004
7.166890e+002,1.705340e+004,1.565743e+004,1.565743e+004,,7.699910e+002,1.364272e+004,1.252594e+004,1.252594e+004
7.167890e+002,1.674230e+004,1.565037e+004,1.565037e+004,,7.698910e+002,1.339384e+004,1.252030e+004,1.252030e+004
7.168890e+002,1.680690e+004,1.564285e+004,1.564285e+004,,7.697910e+002,1.344552e+004,1.251428e+004,1.251428e+004
7.169890e+002,1.679740e+004,1.563535e+004,1.563535e+004,,7.696910e+002,1.343792e+004,1.250828e+004,1.250828e+004
7.170890e+002,1.669870e+004,1.562843e+004,1.562843e+004,,7.695910e+002,1.335896e+004,1.250275e+004,1.250275e+004
7.171890e+002,1.700420e+004,1.561949e+004,1.561949e+004,,7.694910e+002,1.360336e+004,1.249559e+004,1.249559e+004
7.172890e+002,1.691480e+004,1.561107e+004,1.561107e+004,,7.693910e+002,1.353184e+004,1.248885e+004,1.248885e+004
7.173890e+002,1.667560e+004,1.560415e+004,1.560415e+004,,7.692910e+002,1.334048e+004,1.248332e+004,1.248332e+004
7.174890e+002,1.670740e+004,1.559697e+004,1.559697e+004,,7.691910e+002,1.336592e+004,1.247758e+004,1.247758e+004
7.175890e+002,1.677130e+004,1.558934e+004,1.558934e+004,,7.690910e+002,1.341704e+004,1.247147e+004,1.247147e+004
7.176890e+002,1.654680e+004,1.558311e+004,1.558311e+004,,7.689910e+002,1.323744e+004,1.246649e+004,1.246649e+004
7.177890e+002,1.635180e+004,1.557812e+004,1.557812e+004,,7.688910e+002,1.308144e+004,1.246249e+004,1.246249e+004
7.178890e+002,1.629330e+004,1.557347e+004,1.557347e+004,,7.687910e+002,1.303464e+004,1.245877e+004,1.245877e+004
7.179890e+002,1.643490e+004,1.556787e+004,1.556787e+004,,7.686910e+002,1.314792e+004,1.245429e+004,1.245429e+004
7.180890e+002,1.630170e+004,1.556310e+004,1.556310e+004,,7.685910e+002,1.304136e+004,1.245048e+004,1.245048e+004
7.181890e+002,1.660590e+004,1.555632e+004,1.555632e+004,,7.684910e+002,1.328472e+004,1.244505e+004,1.244505e+004
7.182890e+002,1.642890e+004,1.555064e+004,1.555064e+004,,7.683910e+002,1.314312e+004,1.244051e+004,1.244051e+004
7.183890e+002,1.616520e+004,1.554665e+004,1.554665e+004,,7.682910e+002,1.293216e+004,1.243732e+004,1.243732e+004
7.184890e+002,1.623470e+004,1.554217e+004,1.554217e+004,,7.681910e+002,1.298776e+004,1.243374e+004,1.243374e+004
7.185890e+002,1.611540e+004,1.553845e+004,1.553845e+004,,7.680910e+002,1.289232e+004,1.243076e+004,1.243076e+004
7.186890e+002,1.595290e+004,1.553575e+004,1.553575e+004,,7.679910e+002,1.276232e+004,1.242860e+004,1.242860e+004
7.187890e+002,1.601800e+004,1.553262e+004,1.553262e+004,,7.678910e+002,1.281440e+004,1.242609e+004,1.242609e+004
7.188890e+002,1.608830e+004,1.552901e+004,1.552901e+004,,7.677910e+002,1.287064e+004,1.242320e+004,1.242320e+004
7.189890e+002,1.622090e+004,1.552451e+004,1.552451e+004,,7.676910e+002,1.297672e+004,1.241961e+004,1.241961e+004
7.190890e+002,1.591610e+004,1.552196e+004,1.552196e+004,,7.675910e+002,1.273288e+004,1.241757e+004,1.241757e+004
7.191890e+002,1.618990e+004,1.551762e+004,1.551762e+004,,7.674910e+002,1.295192e+004,1.241409e+004,1.241409e+004
7.192890e+002,1.596840e+004,1.551469e+004,1.551469e+004,,7.673910e+002,1.277472e+004,1.241175e+004,1.241175e+004
7.193890e+002,1.606990e+004,1.551108e+004,1.551108e+004,,7.672910e+002,1.285592e+004,1.240886e+004,1.240886e+004
7.194890e+002,1.581970e+004,1.550907e+004,1.550907e+004,,7.671910e+002,1.265576e+004,1.240726e+004,1.240726e+004
7.195890e+002,1.575430e+004,1.550748e+004,1.550748e+004,,7.670910e+002,1.260344e+004,1.240598e+004,1.240598e+004
7.196890e+002,1.589710e+004,1.550494e+004,1.550494e+004,,7.669910e+002,1.271768e+004,1.240396e+004,1.240396e+004
7.197890e+002,1.586380e+004,1.550261e+004,1.550261e+004,,7.668910e+002,1.269104e+004,1.240209e+004,1.240209e+004
7.198890e+002,1.566790e+004,1.550154e+004,1.550154e+004,,7.667910e+002,1.253432e+004,1.240123e+004,1.240123e+004
7.199890e+002,1.592240e+004,1.549880e+004,1.549880e+004,,7.666910e+002,1.273792e+004,1.239904e+004,1.239904e+004
7.200890e+002,1.579140e+004,1.549690e+004,1.549690e+004,,7.665910e+002,1.263312e+004,1.239752e+004,1.239752e+004
7.201890e+002,1.581410e+004,1.549484e+004,1.549484e+004,,7.664910e+002,1.265128e+004,1.239587e+004,1.239587e+004
7.202890e+002,1.564530e+004,1.549386e+004,1.549386e+004,,7.663910e+002,1.251624e+004,1.239509e+004,1.239509e+004
7.203890e+002,1.563600e+004,1.549293e+004,1.549293e+004,,7.662910e+002,1.250880e+004,1.239435e+004,1.239435e+004
7.204890e+002,1.578740e+004,1.549102e+004,1.549102e+004,,7.661910e+002,1.262992e+004,1.239282e+004,1.239282e+004
7.205890e+002,1.581750e+004,1.548890e+004,1.548890e+004,,7.660910e+002,1.265400e+004,1.239112e+004,1.239112e+004
7.206890e+002,1.565250e+004,1.548783e+004,1.548783e+004,,7.659910e+002,1.252200e+004,1.239027e+004,1.239027e+004
7.207890e+002,1.546970e+004,1.548772e+004,1.548772e+004,,7.658910e+002,1.237576e+004,1.239017e+004,1.239017e+004
7.208890e+002,1.542290e+004,1.548730e+004,1.548730e+004,,7.657910e+002,1.233832e+004,1.238984e+004,1.238984e+004
7.209890e+002,1.584570e+004,1.548497e+004,1.548497e+004,,7.656910e+002,1.267656e+004,1.238798e+004,1.238798e+004
7.210890e+002,1.531620e+004,1.548389e+004,1.548389e+004,,7.655910e+002,1.225296e+004,1.238711e+004,1.238711e+004
7.211890e+002,1.563370e+004,1.548291e+004,1.548291e+004,,7.654910e+002,1.250696e+004,1.238633e+004,1.238633e+004
7.212890e+002,1.555980e+004,1.548241e+004,1.548241e+004,,7.653910e+002,1.244784e+004,1.238593e+004,1.238593e+004
7.213890e+002,1.539710e+004,1.548187e+004,1.548187e+004,,7.652910e+002,1.231768e+004,1.238549e+004,1.238549e+004
7.214890e+002,1.554870e+004,1.548143e+004,1.548143e+004,,7.651910e+002,1.243896e+004,1.238514e+004,1.238514e+004
7.215890e+002,1.553790e+004,1.548106e+004,1.548106e+004,,7.650910e+002,1.243032e+004,1.238485e+004,1.238485e+004
7.216890e+002,1.570030e+004,1.547964e+004,1.547964e+004,,7.649910e+002,1.256024e+004,1.238371e+004,1.238371e+004
7.217890e+002,1.548180e+004,1.547962e+004,1.547962e+004,,7.648910e+002,1.238544e+004,1.238370e+004,1.238370e+004
7.218890e+002,1.551330e+004,1.547941e+004,1.547941e+004,,7.647910e+002,1.241064e+004,1.238352e+004,1.238352e+004
7.219890e+002,1.558240e+004,1.547874e+004,1.547874e+004,,7.646910e+002,1.246592e+004,1.238299e+004,1.238299e+004
7.220890e+002,1.546180e+004,1.547863e+004,1.547863e+004,,7.645910e+002,1.236944e+004,1.238290e+004,1.238290e+004
7.221890e+002,1.545840e+004,1.545840e+004,1.545840e+004,,7.644910e+002,1.236672e+004,1.236672e+004,1.236672e+004
7.222890e+002,1.549270e+004,1.549270e+004,1.549270e+004,,7.643910e+002,1.239416e+004,1.239416e+004,1.239416e+004
7.223890e+002,1.530000e+004,1.530000e+004,1.530000e+004,,7.642910e+002,1.224000e+004,1.224000e+004,1.224000e+004
7.224890e+002,1.545330e+004,1.545330e+004,1.545330e+004,,7.641910e+002,1.236264e+004,1.236264e+004,1.236264e+004
7.225890e+002,1.528300e+004,1.528300e+004,1.528300e+004,,7.640910e+002,1.222640e+004,1.222640e+004,1.222640e+004
7.226890e+002,1.536430e+004,1.536430e+004,1.536430e+004,,7.639910e+002,1.229144e+004,1.229144e+004,1.229144e+004
7.227890e+002,1.530280e+004,1.530280e+004,1.530280e+004,,7.638910e+002,1.224224e+004,1.224224e+004,1.224224e+004
7.228890e+002,1.552450e+004,1.552450e+004,1.552450e+004,,7.637910e+002,1.241960e+004,1.241960e+004,1.241960e+004
7.229890e+002,1.540030e+004,1.540030e+004,1.540030e+004,,7.636910e+002,1.232024e+004,1.232024e+004,1.232024e+004
7.230890e+002,1.545720e+004,1.545720e+004,1.545720e+004,,7.635910e+002,1.236576e+004,1.236576e+004,1.236576e+004
7.231890e+002,1.534850e+004,1.534850e+004,1.534850e+004,,7.634910e+002,1.227880e+004,1.227880e+004,1.227880e+004
7.232890e+002,1.542240e+004,1.542240e+004,1.542240e+004,,7.633910e+002,1.233792e+004,1.233792e+004,1.233792e+004
7.233890e+002,1.529800e+004,1.529800e+004,1.529800e+004,,7.632910e+002,1.223840e+004,1.223840e+004,1.223840e+004
7.234890e+002,1.537510e+004,1.537510e+004,1.537510e+004,,7.631910e+002,1.230008e+004,1.230008e+004,1.230008e+004
7.235890e+002,1.541350e+004,1.541350e+004,1.541350e+004,,7.630910e+002,1.233080e+004,1.233080e+004,1.233080e+004
7.236890e+002,1.526950e+004,1.526950e+004,1.526950e+004,,7.629910e+002,1.221560e+004,1.221560e+004,1.221560e+004
7.237890e+002,1.546000e+004,1.546000e+004,1.546000e+004,,7.628910e+002,1.236800e+004,1.236800e+004,1.236800e+004
7.238890e+002,1.524570e+004,1.524570e+004,1.524570e+004,,7.627910e+002,1.219656e+004,1.219656e+004,1.219656e+004
7.239890e+002,1.540540e+004,1.540540e+004,1.540540e+004,,7.626910e+002,1.232432e+004,1.232432e+004,1.232432e+004
7.240890e+002,1.547770e+004,1.547770e+004,1.547770e+004,,7.625910e+002,1.238216e+004,1.238216e+004,1.238216e+004
7.241890e+002,1.536520e+004,1.536520e+004,1.536520e+004,,7.624910e+002,1.229216e+004,1.229216e+004,1.229216e+004
7.242890e+002,1.513790e+004,1.513790e+004,1.513790e+004,,7.623910e+002,1.211032e+004,1.211032e+004,1.211032e+004
7.243890e+002,1.532880e+004,1.532880e+004,1.532880e+004,,7.622910e+002,1.226304e+004,1.226304e+004,1.226304e+004
7.244890e+002,1.520790e+004,1.520790e+004,1.520790e+004,,7.621910e+002,1.216632e+004,1.216632e+004,1.216632e+004
7.245890e+002,1.531580e+004,1.531580e+004,1.531580e+004,,7.620910e+002,1.225264e+004,1.225264e+004,1.225264e+004
7.246890e+002,1.533990e+004,1.533990e+004,1.533990e+004,,7.619910e+002,1.227192e+004,1.227192e+004,1.227192e+004
7.247890e+002,1.532200e+004,1.532200e+004,1.532200e+004,,7.618910e+002,1.225760e+004,1.225760e+004,1.225760e+004
7.248890e+002,1.536350e+004,1.536350e+004,1.536350e+004,,7.617910e+002,1.229080e+004,1.229080e+004,1.229080e+004
7.249890e+002,1.537480e+004,1.537480e+004,1.537480e+004,,7.616910e+002,1.229984e+004,1.229984e+004,1.229984e+004
7.250890e+002,1.513510e+004,1.513510e+004,1.513510e+004,,7.615910e+002,1.210808e+004,1.210808e+004,1.210808e+004
