"Cycle 1:CoEchem1:F1s Scan"
,Characteristic Energy eV,1.486680e+003,Acquisition Time s,1.000000e+000
Name,,
Position,,
FWHM,,
Area,,
Lineshape,,
K.E.,Counts,Background,Envelope,,B.E.,CPS,Background CPS,Envelope CPS
7.907240e+002,9.351400e+003,9.351400e+003,9.351400e+003,,6.959560e+002,9.351400e+003,9.351400e+003,9.351400e+003
7.908240e+002,9.457120e+003,9.457120e+003,9.457120e+003,,6.958560e+002,9.457120e+003,9.457120e+003,9.457120e+003
7.909240e+002,9.696720e+003,9.696720e+003,9.696720e+003,,6.957560e+002,9.696720e+003,9.696720e+003,9.696720e+003
7.910240e+002,9.484260e+003,9.484260e+003,9.484260e+003,,6.956560e+002,9.484260e+003,9.484260e+003,9.484260e+003
7.911240e+002,9.519550e+003,9.519550e+003,9.519550e+003,,6.955560e+002,9.519550e+003,9.519550e+003,9.519550e+003
7.912240e+002,9.663680e+003,9.663680e+003,9.663680e+003,,6.954560e+002,9.663680e+003,9.663680e+003,9.663680e+003
7.913240e+002,9.486220e+003,9.486220e+003,9.486220e+003,,6.953560e+002,9.486220e+003,9.486220e+003,9.486220e+003
7.914240e+002,9.486370e+003,9.486370e+003,9.486370e+003,,6.952560e+002,9.486370e+003,9.486370e+003,9.486370e+003
7.915240e+002,9.554680e+003,9.554680e+003,9.554680e+003,,6.951560e+002,9.554680e+003,9.554680e+003,9.554680e+003
7.916240e+002,9.616390e+003,9.616390e+003,9.616390e+003,,6.950560e+002,9.616390e+003,9.616390e+003,9.616390e+003
7.917240e+002,9.523250e+003,9.523250e+003,9.523250e+003,,6.949560e+002,9.523250e+003,9.523250e+003,9.523250e+003
7.918240e+002,9.596660e+003,9.596660e+003,9.596660e+003,,6.948560e+002,9.596660e+003,9.596660e+003,9.596660e+003
7.919240e+002,9.695930e+003,9.695930e+003,9.695930e+003,,6.947560e+002,9.695930e+003,9.695930e+003,9.695930e+003
7.920240e+002,9.466300e+003,9.466300e+003,9.466300e+003,,6.946560e+002,9.466300e+003,9.466300e+003,9.466300e+003
7.921240e+002,9.498410e+003,9.498410e+003,9.498410e+003,,6.945560e+002,9.498410e+003,9.498410e+003,9.498410e+003
7.922240e+002,9.595210e+003,9.498278e+003,9.498278e+003,,6.944560e+002,9.595210e+003,9.498278e+003,9.498278e+003
7.923240e+002,9.810370e+003,9.497851e+003,9.497851e+003,,6.943560e+002,9.810370e+003,9.497851e+003,9.497851e+003
7.924240e+002,9.683780e+003,9.497596e+003,9.497596e+003,,6.942560e+002,9.683780e+003,9.497596e+003,9.497596e+003
7.925240e+002,9.655040e+003,9.497381e+003,9.497381e+003,,6.941560e+002,9.655040e+003,9.497381e+003,9.497381e+003
7.926240e+002,9.592070e+003,9.497251e+003,9.497251e+003,,6.940560e+002,9.592070e+003,9.497251e+003,9.497251e+003
7.927240e+002,9.781290e+003,9.496863e+003,9.496863e+003,,6.939560e+002,9.781290e+003,9.496863e+003,9.496863e+003
7.928240e+002,9.483070e+003,9.496844e+003,9.496844e+003,,6.938560e+002,9.483070e+003,9.496844e+003,9.496844e+003
7.929240e+002,9.639810e+003,9.496648e+003,9.496648e+003,,6.937560e+002,9.639810e+003,9.496648e+003,9.496648e+003
7.930240e+002,9.497480e+003,9.496647e+003,9.496647e+003,,6.936560e+002,9.497480e+003,9.496647e+003,9.496647e+003
7.931240e+002,9.694290e+003,9.496377e+003,9.496377e+003,,6.935560e+002,9.694290e+003,9.496377e+003,9.496377e+003
7.932240e+002,9.695140e+003,9.496105e+003,9.496105e+003,,6.934560e+002,9.695140e+003,9.496105e+003,9.496105e+003
7.933240e+002,9.624700e+003,9.495929e+003,9.495929e+003,,6.933560e+002,9.624700e+003,9.495929e+003,9.495929e+003
7.934240e+002,9.479720e+003,9.495907e+003,9.495907e+003,,6.932560e+002,9.479720e+003,9.495907e+003,9.495907e+003
7.935240e+002,9.574980e+003,9.495798e+003,9.495798e+003,,6.931560e+002,9.574980e+003,9.495798e+003,9.495798e+003
7.936240e+002,9.764850e+003,9.495430e+003,9.495430e+003,,6.930560e+002,9.764850e+003,9.495430e+003,9.495430e+003
7.937240e+002,9.772550e+003,9.495051e+003,9.495051e+003,,6.929560e+002,9.772550e+003,9.495051e+003,9.495051e+003
7.938240e+002,9.770370e+003,9.494675e+003,9.494675e+003,,6.928560e+002,9.770370e+003,9.494675e+003,9.494675e+003
7.939240e+002,9.668450e+003,9.494437e+003,9.494437e+003,,6.927560e+002,9.668450e+003,9.494437e+003,9.494437e+003
7.940240e+002,9.691140e+003,9.494168e+003,9.494168e+003,,6.926560e+002,9.691140e+003,9.494168e+003,9.494168e+003
7.941240e+002,9.712770e+003,9.493869e+003,9.493869e+003,,6.925560e+002,9.712770e+003,9.493869e+003,9.493869e+003
7.942240e+002,9.669100e+003,9.493629e+003,9.493629e+003,,6.924560e+002,9.669100e+003,9.493629e+003,9.493629e+003
7.943240e+002,9.638030e+003,9.493431e+003,9.493431e+003,,6.923560e+002,9.638030e+003,9.493431e+003,9.493431e+003
7.944240e+002,9.655390e+003,9.493210e+003,9.493210e+003,,6.922560e+002,9.655390e+003,9.493210e+003,9.493210e+003
7.945240e+002,9.791550e+003,9.492802e+003,9.492802e+003,,6.921560e+002,9.791550e+003,9.492802e+003,9.492802e+003
7.946240e+002,9.694670e+003,9.492525e+003,9.492525e+003,,6.920560e+002,9.694670e+003,9.492525e+003,9.492525e+003
7.947240e+002,9.616850e+003,9.492355e+003,9.492355e+003,,6.919560e+002,9.616850e+003,9.492355e+003,9.492355e+003
7.948240e+002,9.742370e+003,9.492013e+003,9.492013e+003,,6.918560e+002,9.742370e+003,9.492013e+003,9.492013e+003
7.949240e+002,9.743840e+003,9.491669e+003,9.491669e+003,,6.917560e+002,9.743840e+003,9.491669e+003,9.491669e+003
7.950240e+002,9.621740e+003,9.491491e+003,9.491491e+003,,6.916560e+002,9.621740e+003,9.491491e+003,9.491491e+003
7.951240e+002,9.548500e+003,9.491413e+003,9.491413e+003,,6.915560e+002,9.548500e+003,9.491413e+003,9.491413e+003
7.952240e+002,9.724810e+003,9.491093e+003,9.491093e+003,,6.914560e+002,9.724810e+003,9.491093e+003,9.491093e+003
7.953240e+002,9.825300e+003,9.490636e+003,9.490636e+003,,6.913560e+002,9.825300e+003,9.490636e+003,9.490636e+003
7.954240e+002,9.896860e+003,9.490080e+003,9.490080e+003,,6.912560e+002,9.896860e+003,9.490080e+003,9.490080e+003
7.955240e+002,9.812620e+003,9.489639e+003,9.489639e+003,,6.911560e+002,9.812620e+003,9.489639e+003,9.489639e+003
7.956240e+002,9.818690e+003,9.489189e+003,9.489189e+003,,6.910560e+002,9.818690e+003,9.489189e+003,9.489189e+003
7.957240e+002,9.999420e+003,9.488491e+003,9.488491e+003,,6.909560e+002,9.999420e+003,9.488491e+003,9.488491e+003
7.958240e+002,9.759090e+003,9.488121e+003,9.488121e+003,,6.908560e+002,9.759090e+003,9.488121e+003,9.488121e+003
7.959240e+002,9.757240e+003,9.487752e+003,9.487752e+003,,6.907560e+002,9.757240e+003,9.487752e+003,9.487752e+003
7.960240e+002,1.002430e+004,9.487018e+003,9.487018e+003,,6.906560e+002,1.002430e+004,9.487018e+003,9.487018e+003
7.961240e+002,1.010610e+004,9.486171e+003,9.486171e+003,,6.905560e+002,1.010610e+004,9.486171e+003,9.486171e+003
7.962240e+002,1.009990e+004,9.485332e+003,9.485332e+003,,6.904560e+002,1.009990e+004,9.485332e+003,9.485332e+003
7.963240e+002,1.010140e+004,9.484489e+003,9.484489e+003,,6.903560e+002,1.010140e+004,9.484489e+003,9.484489e+003
7.964240e+002,1.029770e+004,9.483376e+003,9.483376e+003,,6.902560e+002,1.029770e+004,9.483376e+003,9.483376e+003
7.965240e+002,1.041130e+004,9.482106e+003,9.482106e+003,,6.901560e+002,1.041130e+004,9.482106e+003,9.482106e+003
7.966240e+002,1.057500e+004,9.480611e+003,9.480611e+003,,6.900560e+002,1.057500e+004,9.480611e+003,9.480611e+003
7.967240e+002,1.089110e+004,9.478681e+003,9.478681e+003,,6.899560e+002,1.089110e+004,9.478681e+003,9.478681e+003
7.968240e+002,1.073750e+004,9.476959e+003,9.476959e+003,,6.898560e+002,1.073750e+004,9.476959e+003,9.476959e+003
7.969240e+002,1.096440e+004,9.474924e+003,9.474924e+003,,6.897560e+002,1.096440e+004,9.474924e+003,9.474924e+003
7.970240e+002,1.130440e+004,9.472421e+003,9.472421e+003,,6.896560e+002,1.130440e+004,9.472421e+003,9.472421e+003
7.971240e+002,1.129900e+004,9.469922e+003,9.469922e+003,,6.895560e+002,1.129900e+004,9.469922e+003,9.469922e+003
7.972240e+002,1.168200e+004,9.466895e+003,9.466895e+003,,6.894560e+002,1.168200e+004,9.466895e+003,9.466895e+003
7.973240e+002,1.198050e+004,9.463456e+003,9.463456e+003,,6.893560e+002,1.198050e+004,9.463456e+003,9.463456e+003
7.974240e+002,1.220100e+004,9.459711e+003,9.459711e+003,,6.892560e+002,1.220100e+004,9.459711e+003,9.459711e+003
7.975240e+002,1.264930e+004,9.455347e+003,9.455347e+003,,6.891560e+002,1.264930e+004,9.455347e+003,9.455347e+003
7.976240e+002,1.305020e+004,9.450429e+003,9.450429e+003,,6.890560e+002,1.305020e+004,9.450429e+003,9.450429e+003
7.977240e+002,1.358380e+004,9.444774e+003,9.444774e+003,,6.889560e+002,1.358380e+004,9.444774e+003,9.444774e+003
7.978240e+002,1.406370e+004,9.438454e+003,9.438454e+003,,6.888560e+002,1.406370e+004,9.438454e+003,9.438454e+003
7.979240e+002,1.476370e+004,9.431168e+003,9.431168e+003,,6.887560e+002,1.476370e+004,9.431168e+003,9.431168e+003
7.980240e+002,1.508520e+004,9.423433e+003,9.423433e+003,,6.886560e+002,1.508520e+004,9.423433e+003,9.423433e+003
7.981240e+002,1.600230e+004,9.414432e+003,9.414432e+003,,6.885560e+002,1.600230e+004,9.414432e+003,9.414432e+003
7.982240e+002,1.665630e+004,9.404524e+003,9.404524e+003,,6.884560e+002,1.665630e+004,9.404524e+003,9.404524e+003
7.983240e+002,1.766670e+004,9.393220e+003,9.393220e+003,,6.883560e+002,1.766670e+004,9.393220e+003,9.393220e+003
7.984240e+002,1.822860e+004,9.381132e+003,9.381132e+003,,6.882560e+002,1.822860e+004,9.381132e+003,9.381132e+003
7.985240e+002,1.892410e+004,9.368075e+003,9.368075e+003,,6.881560e+002,1.892410e+004,9.368075e+003,9.368075e+003
7.986240e+002,2.002480e+004,9.353495e+003,9.353495e+003,,6.880560e+002,2.002480e+004,9.353495e+003,9.353495e+003
7.987240e+002,2.082290e+004,9.337803e+003,9.337803e+003,,6.879560e+002,2.082290e+004,9.337803e+003,9.337803e+003
7.988240e+002,2.153820e+004,9.321111e+003,9.321111e+003,,6.878560e+002,2.153820e+004,9.321111e+003,9.321111e+003
7.989240e+002,2.220270e+004,9.303487e+003,9.303487e+003,,6.877560e+002,2.220270e+004,9.303487e+003,9.303487e+003
7.990240e+002,2.201910e+004,9.286090e+003,9.286090e+003,,6.876560e+002,2.201910e+004,9.286090e+003,9.286090e+003
7.991240e+002,2.249750e+004,9.268015e+003,9.268015e+003,,6.875560e+002,2.249750e+004,9.268015e+003,9.268015e+003
7.992240e+002,2.259150e+004,9.249786e+003,9.249786e+003,,6.874560e+002,2.259150e+004,9.249786e+003,9.249786e+003
7.993240e+002,2.281450e+004,9.231228e+003,9.231228e+003,,6.873560e+002,2.281450e+004,9.231228e+003,9.231228e+003
7.994240e+002,2.203440e+004,9.213711e+003,9.213711e+003,,6.872560e+002,2.203440e+004,9.213711e+003,9.213711e+003
7.995240e+002,2.156580e+004,9.196811e+003,9.196811e+003,,6.871560e+002,2.156580e+004,9.196811e+003,9.196811e+003
7.996240e+002,2.114470e+004,9.180465e+003,9.180465e+003,,6.870560e+002,2.114470e+004,9.180465e+003,9.180465e+003
7.997240e+002,1.991630e+004,9.165777e+003,9.165777e+003,,6.869560e+002,1.991630e+004,9.165777e+003,9.165777e+003
7.998240e+002,1.930660e+004,9.151902e+003,9.151902e+003,,6.868560e+002,1.930660e+004,9.151902e+003,9.151902e+003
7.999240e+002,1.836780e+004,9.139294e+003,9.139294e+003,,6.867560e+002,1.836780e+004,9.139294e+003,9.139294e+003
8.000240e+002,1.724720e+004,9.128201e+003,9.128201e+003,,6.866560e+002,1.724720e+004,9.128201e+003,9.128201e+003
8.001240e+002,1.665160e+004,9.117908e+003,9.117908e+003,,6.865560e+002,1.665160e+004,9.117908e+003,9.117908e+003
8.002240e+002,1.548630e+004,9.109195e+003,9.109195e+003,,6.864560e+002,1.548630e+004,9.109195e+003,9.109195e+003
8.003240e+002,1.477040e+004,9.101449e+003,9.101449e+003,,6.863560e+002,1.477040e+004,9.101449e+003,9.101449e+003
8.004240e+002,1.393180e+004,9.094841e+003,9.094841e+003,,6.862560e+002,1.393180e+004,9.094841e+003,9.094841e+003
8.005240e+002,1.331650e+004,9.089065e+003,9.089065e+003,,6.861560e+002,1.331650e+004,9.089065e+003,9.089065e+003
8.006240e+002,1.257220e+004,9.084299e+003,9.084299e+003,,6.860560e+002,1.257220e+004,9.084299e+003,9.084299e+003
8.007240e+002,1.239160e+004,9.079774e+003,9.079774e+003,,6.859560e+002,1.239160e+004,9.079774e+003,9.079774e+003
8.008240e+002,1.171300e+004,9.076172e+003,9.076172e+003,,6.858560e+002,1.171300e+004,9.076172e+003,9.076172e+003
8.009240e+002,1.154370e+004,9.072796e+003,9.072796e+003,,6.857560e+002,1.154370e+004,9.072796e+003,9.072796e+003
8.010240e+002,1.126800e+004,9.069792e+003,9.069792e+003,,6.856560e+002,1.126800e+004,9.069792e+003,9.069792e+003
8.011240e+002,1.105800e+004,9.067072e+003,9.067072e+003,,6.855560e+002,1.105800e+004,9.067072e+003,9.067072e+003
8.012240e+002,1.093710e+004,9.064514e+003,9.064514e+003,,6.854560e+002,1.093710e+004,9.064514e+003,9.064514e+003
8.013240e+002,1.080790e+004,9.062128e+003,9.062128e+003,,6.853560e+002,1.080790e+004,9.062128e+003,9.062128e+003
8.014240e+002,1.063830e+004,9.059972e+003,9.059972e+003,,6.852560e+002,1.063830e+004,9.059972e+003,9.059972e+003
8.015240e+002,1.069430e+004,9.057736e+003,9.057736e+003,,6.851560e+002,1.069430e+004,9.057736e+003,9.057736e+003
8.016240e+002,1.064000e+004,9.055571e+003,9.055571e+003,,6.850560e+002,1.064000e+004,9.055571e+003,9.055571e+003
8.017240e+002,1.059070e+004,9.053471e+003,9.053471e+003,,6.849560e+002,1.059070e+004,9.053471e+003,9.053471e+003
8.018240e+002,1.068220e+004,9.051242e+003,9.051242e+003,,6.848560e+002,1.068220e+004,9.051242e+003,9.051242e+003
8.019240e+002,1.074090e+004,9.048931e+003,9.048931e+003,,6.847560e+002,1.074090e+004,9.048931e+003,9.048931e+003
8.020240e+002,1.078430e+004,9.046556e+003,9.046556e+003,,6.846560e+002,1.078430e+004,9.046556e+003,9.046556e+003
8.021240e+002,1.066840e+004,9.044337e+003,9.044337e+003,,6.845560e+002,1.066840e+004,9.044337e+003,9.044337e+003
8.022240e+002,1.079800e+004,9.041938e+003,9.041938e+003,,6.844560e+002,1.079800e+004,9.041938e+003,9.041938e+003
8.023240e+002,1.101000e+004,9.039246e+003,9.039246e+003,,6.843560e+002,1.101000e+004,9.039246e+003,9.039246e+003
8.024240e+002,1.095880e+004,9.036619e+003,9.036619e+003,,6.842560e+002,1.095880e+004,9.036619e+003,9.036619e+003
8.025240e+002,1.125380e+004,9.033586e+003,9.033586e+003,,6.841560e+002,1.125380e+004,9.033586e+003,9.033586e+003
8.026240e+002,1.107280e+004,9.030796e+003,9.030796e+003,,6.840560e+002,1.107280e+004,9.030796e+003,9.030796e+003
8.027240e+002,1.136960e+004,9.027596e+003,9.027596e+003,,6.839560e+002,1.136960e+004,9.027596e+003,9.027596e+003
8.028240e+002,1.129020e+004,9.024500e+003,9.024500e+003,,6.838560e+002,1.129020e+004,9.024500e+003,9.024500e+003
8.029240e+002,1.117940e+004,9.021552e+003,9.021552e+003,,6.837560e+002,1.117940e+004,9.021552e+003,9.021552e+003
8.030240e+002,1.140570e+004,9.018290e+003,9.018290e+003,,6.836560e+002,1.140570e+004,9.018290e+003,9.018290e+003
8.031240e+002,1.120230e+004,9.015302e+003,9.015302e+003,,6.835560e+002,1.120230e+004,9.015302e+003,9.015302e+003
8.032240e+002,1.093020e+004,9.012682e+003,9.012682e+003,,6.834560e+002,1.093020e+004,9.012682e+003,9.012682e+003
8.033240e+002,1.096220e+004,9.010015e+003,9.010015e+003,,6.833560e+002,1.096220e+004,9.010015e+003,9.010015e+003
8.034240e+002,1.091150e+004,9.007414e+003,9.007414e+003,,6.832560e+002,1.091150e+004,9.007414e+003,9.007414e+003
8.035240e+002,1.072580e+004,9.005063e+003,9.005063e+003,,6.831560e+002,1.072580e+004,9.005063e+003,9.005063e+003
8.036240e+002,1.046480e+004,9.003065e+003,9.003065e+003,,6.830560e+002,1.046480e+004,9.003065e+003,9.003065e+003
8.037240e+002,1.025340e+004,9.001355e+003,9.001355e+003,,6.829560e+002,1.025340e+004,9.001355e+003,9.001355e+003
8.038240e+002,1.028320e+004,8.999601e+003,8.999601e+003,,6.828560e+002,1.028320e+004,8.999601e+003,8.999601e+003
8.039240e+002,1.028280e+004,8.997845e+003,8.997845e+003,,6.827560e+002,1.028280e+004,8.997845e+003,8.997845e+003
8.040240e+002,9.955590e+003,8.996535e+003,8.996535e+003,,6.826560e+002,9.955590e+003,8.996535e+003,8.996535e+003
8.041240e+002,9.919470e+003,8.995272e+003,8.995272e+003,,6.825560e+002,9.919470e+003,8.995272e+003,8.995272e+003
8.042240e+002,9.771160e+003,8.994211e+003,8.994211e+003,,6.824560e+002,9.771160e+003,8.994211e+003,8.994211e+003
8.043240e+002,9.597990e+003,8.993385e+003,8.993385e+003,,6.823560e+002,9.597990e+003,8.993385e+003,8.993385e+003
8.044240e+002,9.603680e+003,8.992550e+003,8.992550e+003,,6.822560e+002,9.603680e+003,8.992550e+003,8.992550e+003
8.045240e+002,9.643520e+003,8.991659e+003,8.991659e+003,,6.821560e+002,9.643520e+003,8.991659e+003,8.991659e+003
8.046240e+002,9.398070e+003,8.991103e+003,8.991103e+003,,6.820560e+002,9.398070e+003,8.991103e+003,8.991103e+003
8.047240e+002,9.337990e+003,8.990629e+003,8.990629e+003,,6.819560e+002,9.337990e+003,8.990629e+003,8.990629e+003
8.048240e+002,9.155580e+003,8.990403e+003,8.990403e+003,,6.818560e+002,9.155580e+003,8.990403e+003,8.990403e+003
8.049240e+002,9.374610e+003,8.989877e+003,8.989877e+003,,6.817560e+002,9.374610e+003,8.989877e+003,8.989877e+003
8.050240e+002,9.247680e+003,8.989524e+003,8.989524e+003,,6.816560e+002,9.247680e+003,8.989524e+003,8.989524e+003
8.051240e+002,9.182820e+003,8.989260e+003,8.989260e+003,,6.815560e+002,9.182820e+003,8.989260e+003,8.989260e+003
8.052240e+002,9.197570e+003,8.988975e+003,8.988975e+003,,6.814560e+002,9.197570e+003,8.988975e+003,8.988975e+003
8.053240e+002,9.249640e+003,8.988618e+003,8.988618e+003,,6.813560e+002,9.249640e+003,8.988618e+003,8.988618e+003
8.054240e+002,9.310610e+003,8.988178e+003,8.988178e+003,,6.812560e+002,9.310610e+003,8.988178e+003,8.988178e+003
8.055240e+002,9.052400e+003,8.988090e+003,8.988090e+003,,6.811560e+002,9.052400e+003,8.988090e+003,8.988090e+003
8.056240e+002,8.988090e+003,8.988090e+003,8.988090e+003,,6.810560e+002,8.988090e+003,8.988090e+003,8.988090e+003
8.057240e+002,9.199020e+003,9.199020e+003,9.199020e+003,,6.809560e+002,9.199020e+003,9.199020e+003,9.199020e+003
