"Cycle 1:CoOTf1:S2p Scan"
,Characteristic Energy eV,1.486680e+003,Acquisition Time s,5.000000e-001
Name,,"S 2p","S 2p",
Position,,"168.27","169.45",
FWHM,,"1.92","1.92",
Area,,"4559.66","2279.83",
Lineshape,,"LA(50)","LA(50)",
K.E.,Counts,"S 2p","S 2p",Background,Envelope,,B.E.,CPS,"S 2p","S 2p",Background CPS,Envelope CPS
1.312062e+003,1.151680e+003,1.155008e+003,1.154257e+003,1.151680e+003,1.157585e+003,,1.746180e+002,2.303360e+003,2.310016e+003,2.308513e+003,2.303360e+003,2.315169e+003
1.312162e+003,1.134470e+003,1.137916e+003,1.137156e+003,1.134470e+003,1.140602e+003,,1.745180e+002,2.268940e+003,2.275832e+003,2.274311e+003,2.268940e+003,2.281204e+003
1.312262e+003,1.147420e+003,1.150985e+003,1.150214e+003,1.147420e+003,1.153779e+003,,1.744180e+002,2.294840e+003,2.301969e+003,2.300429e+003,2.294840e+003,2.307558e+003
1.312362e+003,1.126130e+003,1.129813e+003,1.129059e+003,1.126130e+003,1.132742e+003,,1.743180e+002,2.252260e+003,2.259626e+003,2.258119e+003,2.252260e+003,2.265484e+003
1.312462e+003,1.151580e+003,1.155399e+003,1.154647e+003,1.151580e+003,1.158466e+003,,1.742180e+002,2.303160e+003,2.310797e+003,2.309295e+003,2.303160e+003,2.316932e+003
1.312562e+003,1.162860e+003,1.166821e+003,1.166066e+003,1.162860e+003,1.170027e+003,,1.741180e+002,2.325720e+003,2.333643e+003,2.332131e+003,2.325720e+003,2.340054e+003
1.312662e+003,1.150620e+003,1.154724e+003,1.153978e+003,1.150620e+003,1.158083e+003,,1.740180e+002,2.301240e+003,2.309449e+003,2.307956e+003,2.301240e+003,2.316165e+003
1.312762e+003,1.147760e+003,1.145316e+003,1.144602e+003,1.141064e+003,1.148854e+003,,1.739180e+002,2.295520e+003,2.290633e+003,2.289203e+003,2.282128e+003,2.297708e+003
1.312862e+003,1.127410e+003,1.145476e+003,1.144766e+003,1.141048e+003,1.149193e+003,,1.738180e+002,2.254820e+003,2.290952e+003,2.289531e+003,2.282097e+003,2.298386e+003
1.312962e+003,1.136400e+003,1.145646e+003,1.144940e+003,1.141043e+003,1.149542e+003,,1.737180e+002,2.272800e+003,2.291291e+003,2.289880e+003,2.282086e+003,2.299085e+003
1.313062e+003,1.110870e+003,1.145786e+003,1.145135e+003,1.141009e+003,1.149912e+003,,1.736180e+002,2.221740e+003,2.291573e+003,2.290269e+003,2.282018e+003,2.299824e+003
1.313162e+003,1.126530e+003,1.145972e+003,1.145359e+003,1.140992e+003,1.150338e+003,,1.735180e+002,2.253060e+003,2.291943e+003,2.290718e+003,2.281985e+003,2.300676e+003
1.313262e+003,1.147200e+003,1.146182e+003,1.145592e+003,1.140985e+003,1.150789e+003,,1.734180e+002,2.294400e+003,2.292365e+003,2.291185e+003,2.281971e+003,2.301579e+003
1.313362e+003,1.115090e+003,1.146371e+003,1.145830e+003,1.140956e+003,1.151245e+003,,1.733180e+002,2.230180e+003,2.292741e+003,2.291660e+003,2.281912e+003,2.302489e+003
1.313462e+003,1.154670e+003,1.146578e+003,1.146151e+003,1.140940e+003,1.151789e+003,,1.732180e+002,2.309340e+003,2.293156e+003,2.292302e+003,2.281881e+003,2.303577e+003
1.313562e+003,1.091350e+003,1.146798e+003,1.146431e+003,1.140884e+003,1.152345e+003,,1.731180e+002,2.182700e+003,2.293596e+003,2.292863e+003,2.281768e+003,2.304691e+003
1.313662e+003,1.100360e+003,1.147028e+003,1.146722e+003,1.140838e+003,1.152912e+003,,1.730180e+002,2.200720e+003,2.294057e+003,2.293444e+003,2.281676e+003,2.305825e+003
1.313762e+003,1.150520e+003,1.147294e+003,1.147173e+003,1.140827e+003,1.153639e+003,,1.729180e+002,2.301040e+003,2.294587e+003,2.294346e+003,2.281654e+003,2.307278e+003
1.313862e+003,1.154960e+003,1.147599e+003,1.147664e+003,1.140811e+003,1.154452e+003,,1.728180e+002,2.309920e+003,2.295199e+003,2.295327e+003,2.281622e+003,2.308904e+003
1.313962e+003,1.131260e+003,1.147947e+003,1.148160e+003,1.140800e+003,1.155307e+003,,1.727180e+002,2.262520e+003,2.295895e+003,2.296319e+003,2.281600e+003,2.310614e+003
1.314062e+003,1.164180e+003,1.148280e+003,1.148710e+003,1.140774e+003,1.156217e+003,,1.726180e+002,2.328360e+003,2.296560e+003,2.297420e+003,2.281547e+003,2.312433e+003
1.314162e+003,1.188030e+003,1.148587e+003,1.149524e+003,1.140720e+003,1.157390e+003,,1.725180e+002,2.376060e+003,2.297173e+003,2.299047e+003,2.281440e+003,2.314781e+003
1.314262e+003,1.170640e+003,1.149034e+003,1.150357e+003,1.140686e+003,1.158705e+003,,1.724180e+002,2.341280e+003,2.298068e+003,2.300713e+003,2.281372e+003,2.317409e+003
1.314362e+003,1.216110e+003,1.149429e+003,1.151138e+003,1.140600e+003,1.159967e+003,,1.723180e+002,2.432220e+003,2.298859e+003,2.302276e+003,2.281200e+003,2.319934e+003
1.314462e+003,1.141710e+003,1.149909e+003,1.152556e+003,1.140599e+003,1.161866e+003,,1.722180e+002,2.283420e+003,2.299819e+003,2.305111e+003,2.281198e+003,2.323732e+003
1.314562e+003,1.134270e+003,1.150474e+003,1.154256e+003,1.140592e+003,1.164139e+003,,1.721180e+002,2.268540e+003,2.300949e+003,2.308512e+003,2.281183e+003,2.328277e+003
1.314662e+003,1.199330e+003,1.151081e+003,1.155444e+003,1.140525e+003,1.166000e+003,,1.720180e+002,2.398660e+003,2.302162e+003,2.310887e+003,2.281050e+003,2.332000e+003
1.314762e+003,1.187160e+003,1.151701e+003,1.157643e+003,1.140472e+003,1.168873e+003,,1.719180e+002,2.374320e+003,2.303403e+003,2.315287e+003,2.280944e+003,2.337745e+003
1.314862e+003,1.194760e+003,1.152313e+003,1.160411e+003,1.140410e+003,1.172313e+003,,1.718180e+002,2.389520e+003,2.304626e+003,2.320821e+003,2.280820e+003,2.344627e+003
1.314962e+003,1.118920e+003,1.153280e+003,1.163956e+003,1.140386e+003,1.176850e+003,,1.717180e+002,2.237840e+003,2.306560e+003,2.327912e+003,2.280772e+003,2.353700e+003
1.315062e+003,1.187140e+003,1.154240e+003,1.168416e+003,1.140333e+003,1.182324e+003,,1.716180e+002,2.374280e+003,2.308481e+003,2.336833e+003,2.280665e+003,2.364648e+003
1.315162e+003,1.120500e+003,1.155231e+003,1.174092e+003,1.140310e+003,1.189013e+003,,1.715180e+002,2.241000e+003,2.310463e+003,2.348184e+003,2.280620e+003,2.378027e+003
1.315262e+003,1.157620e+003,1.156510e+003,1.181235e+003,1.140290e+003,1.197455e+003,,1.714180e+002,2.315240e+003,2.313021e+003,2.362470e+003,2.280581e+003,2.394911e+003
1.315362e+003,1.218860e+003,1.158155e+003,1.190092e+003,1.140201e+003,1.208046e+003,,1.713180e+002,2.437720e+003,2.316310e+003,2.380184e+003,2.280402e+003,2.416092e+003
1.315462e+003,1.201690e+003,1.159819e+003,1.201094e+003,1.140131e+003,1.220782e+003,,1.712180e+002,2.403380e+003,2.319639e+003,2.402188e+003,2.280262e+003,2.441565e+003
1.315562e+003,1.216790e+003,1.161466e+003,1.214554e+003,1.140044e+003,1.235976e+003,,1.711180e+002,2.433580e+003,2.322932e+003,2.429108e+003,2.280088e+003,2.471952e+003
1.315662e+003,1.222130e+003,1.164547e+003,1.230822e+003,1.139951e+003,1.255419e+003,,1.710180e+002,2.444260e+003,2.329095e+003,2.461644e+003,2.279901e+003,2.510837e+003
1.315762e+003,1.299680e+003,1.166656e+003,1.250115e+003,1.139769e+003,1.277002e+003,,1.709180e+002,2.599360e+003,2.333311e+003,2.500230e+003,2.279538e+003,2.554003e+003
1.315862e+003,1.254850e+003,1.170299e+003,1.272781e+003,1.139638e+003,1.303442e+003,,1.708180e+002,2.509700e+003,2.340597e+003,2.545562e+003,2.279276e+003,2.606883e+003
1.315962e+003,1.295070e+003,1.174834e+003,1.298818e+003,1.139461e+003,1.334191e+003,,1.707180e+002,2.590140e+003,2.349668e+003,2.597636e+003,2.278923e+003,2.668381e+003
1.316062e+003,1.337350e+003,1.180534e+003,1.328164e+003,1.139236e+003,1.369462e+003,,1.706180e+002,2.674700e+003,2.361069e+003,2.656328e+003,2.278473e+003,2.738924e+003
1.316162e+003,1.389940e+003,1.187732e+003,1.360537e+003,1.138951e+003,1.409318e+003,,1.705180e+002,2.779880e+003,2.375465e+003,2.721075e+003,2.277903e+003,2.818637e+003
1.316262e+003,1.418140e+003,1.196875e+003,1.395478e+003,1.138634e+003,1.453719e+003,,1.704180e+002,2.836280e+003,2.393749e+003,2.790956e+003,2.277268e+003,2.907438e+003
1.316362e+003,1.490590e+003,1.208408e+003,1.432213e+003,1.138234e+003,1.502387e+003,,1.703180e+002,2.981180e+003,2.416816e+003,2.864426e+003,2.276467e+003,3.004775e+003
1.316462e+003,1.585410e+003,1.222886e+003,1.469758e+003,1.137725e+003,1.554919e+003,,1.702180e+002,3.170820e+003,2.445773e+003,2.939516e+003,2.275450e+003,3.109838e+003
1.316562e+003,1.614020e+003,1.241033e+003,1.507028e+003,1.137184e+003,1.610878e+003,,1.701180e+002,3.228040e+003,2.482067e+003,3.014057e+003,2.274367e+003,3.221756e+003
1.316662e+003,1.681630e+003,1.263490e+003,1.542667e+003,1.136565e+003,1.669593e+003,,1.700180e+002,3.363260e+003,2.526980e+003,3.085335e+003,2.273129e+003,3.339186e+003
1.316762e+003,1.798060e+003,1.290903e+003,1.575223e+003,1.135812e+003,1.730313e+003,,1.699180e+002,3.596120e+003,2.581806e+003,3.150446e+003,2.271625e+003,3.460627e+003
1.316862e+003,1.816460e+003,1.324060e+003,1.603426e+003,1.135038e+003,1.792448e+003,,1.698180e+002,3.632920e+003,2.648120e+003,3.206853e+003,2.270077e+003,3.584896e+003
1.316962e+003,1.879530e+003,1.363461e+003,1.625948e+003,1.134192e+003,1.855217e+003,,1.697180e+002,3.759060e+003,2.726922e+003,3.251896e+003,2.268384e+003,3.710434e+003
1.317062e+003,1.988140e+003,1.409441e+003,1.641639e+003,1.133221e+003,1.917859e+003,,1.696180e+002,3.976280e+003,2.818883e+003,3.283277e+003,2.266442e+003,3.835718e+003
1.317162e+003,1.925210e+003,1.462339e+003,1.649913e+003,1.132320e+003,1.979931e+003,,1.695180e+002,3.850420e+003,2.924678e+003,3.299825e+003,2.264641e+003,3.959863e+003
1.317262e+003,2.012310e+003,1.521769e+003,1.650153e+003,1.131320e+003,2.040603e+003,,1.694180e+002,4.024620e+003,3.043539e+003,3.300306e+003,2.262640e+003,4.081205e+003
1.317362e+003,2.111220e+003,1.587102e+003,1.642272e+003,1.130206e+003,2.099169e+003,,1.693180e+002,4.222440e+003,3.174205e+003,3.284544e+003,2.260411e+003,4.198338e+003
1.317462e+003,2.087500e+003,1.657414e+003,1.626748e+003,1.129117e+003,2.155045e+003,,1.692180e+002,4.175000e+003,3.314828e+003,3.253497e+003,2.258234e+003,4.310091e+003
1.317562e+003,2.190660e+003,1.731013e+003,1.604137e+003,1.127910e+003,2.207239e+003,,1.691180e+002,4.381320e+003,3.462025e+003,3.208273e+003,2.255820e+003,4.414479e+003
1.317662e+003,2.185480e+003,1.806017e+003,1.575555e+003,1.126707e+003,2.254865e+003,,1.690180e+002,4.370960e+003,3.612034e+003,3.151111e+003,2.253415e+003,4.509730e+003
1.317762e+003,2.273890e+003,1.879934e+003,1.542127e+003,1.125403e+003,2.296657e+003,,1.689180e+002,4.547780e+003,3.759867e+003,3.084254e+003,2.250806e+003,4.593315e+003
1.317862e+003,2.332050e+003,1.950119e+003,1.505255e+003,1.124031e+003,2.331343e+003,,1.688180e+002,4.664100e+003,3.900238e+003,3.010510e+003,2.248062e+003,4.662686e+003
1.317962e+003,2.343490e+003,2.013836e+003,1.466390e+003,1.122644e+003,2.357582e+003,,1.687180e+002,4.686980e+003,4.027672e+003,2.932780e+003,2.245289e+003,4.715164e+003
1.318062e+003,2.411970e+003,2.068281e+003,1.426813e+003,1.121178e+003,2.373916e+003,,1.686180e+002,4.823940e+003,4.136563e+003,2.853626e+003,2.242357e+003,4.747832e+003
1.318162e+003,2.441210e+003,2.110978e+003,1.387783e+003,1.119677e+003,2.379083e+003,,1.685180e+002,4.882420e+003,4.221955e+003,2.775566e+003,2.239355e+003,4.758166e+003
1.318262e+003,2.386750e+003,2.139978e+003,1.350416e+003,1.118237e+003,2.372158e+003,,1.684180e+002,4.773500e+003,4.279957e+003,2.700832e+003,2.236473e+003,4.744316e+003
1.318362e+003,2.403100e+003,2.153748e+003,1.315436e+003,1.116776e+003,2.352408e+003,,1.683180e+002,4.806200e+003,4.307496e+003,2.630871e+003,2.233552e+003,4.704816e+003
1.318462e+003,2.376350e+003,2.151570e+003,1.283447e+003,1.115344e+003,2.319674e+003,,1.682180e+002,4.752700e+003,4.303141e+003,2.566895e+003,2.230687e+003,4.639348e+003
1.318562e+003,2.360450e+003,2.133475e+003,1.254767e+003,1.113928e+003,2.274315e+003,,1.681180e+002,4.720900e+003,4.266951e+003,2.509535e+003,2.227856e+003,4.548630e+003
1.318662e+003,2.180180e+003,2.100479e+003,1.229710e+003,1.112715e+003,2.217474e+003,,1.680180e+002,4.360360e+003,4.200958e+003,2.459420e+003,2.225431e+003,4.434947e+003
1.318762e+003,2.098600e+003,2.053981e+003,1.208113e+003,1.111594e+003,2.150501e+003,,1.679180e+002,4.197200e+003,4.107963e+003,2.416227e+003,2.223189e+003,4.301001e+003
1.318862e+003,2.049630e+003,1.996044e+003,1.189755e+003,1.110528e+003,2.075272e+003,,1.678180e+002,4.099260e+003,3.992089e+003,2.379511e+003,2.221056e+003,4.150543e+003
1.318962e+003,1.934390e+003,1.929290e+003,1.174439e+003,1.109591e+003,1.994138e+003,,1.677180e+002,3.868780e+003,3.858580e+003,2.348877e+003,2.219182e+003,3.988275e+003
1.319062e+003,1.839680e+003,1.856448e+003,1.161815e+003,1.108761e+003,1.909501e+003,,1.676180e+002,3.679360e+003,3.712895e+003,2.323630e+003,2.217522e+003,3.819003e+003
1.319162e+003,1.789180e+003,1.780252e+003,1.151479e+003,1.107987e+003,1.823744e+003,,1.675180e+002,3.578360e+003,3.560505e+003,2.302957e+003,2.215974e+003,3.647488e+003
1.319262e+003,1.776010e+003,1.703321e+003,1.143041e+003,1.107228e+003,1.739134e+003,,1.674180e+002,3.552020e+003,3.406641e+003,2.286082e+003,2.214455e+003,3.478268e+003
1.319362e+003,1.555060e+003,1.628243e+003,1.136416e+003,1.106718e+003,1.657940e+003,,1.673180e+002,3.110120e+003,3.256485e+003,2.272832e+003,2.213437e+003,3.315881e+003
1.319462e+003,1.496010e+003,1.556801e+003,1.131124e+003,1.106276e+003,1.581649e+003,,1.672180e+002,2.992020e+003,3.113602e+003,2.262247e+003,2.212552e+003,3.163298e+003
1.319562e+003,1.525600e+003,1.490396e+003,1.126810e+003,1.105799e+003,1.511406e+003,,1.671180e+002,3.051200e+003,2.980791e+003,2.253619e+003,2.211598e+003,3.022812e+003
1.319662e+003,1.511530e+003,1.430097e+003,1.123311e+003,1.105338e+003,1.448070e+003,,1.670180e+002,3.023060e+003,2.860194e+003,2.246621e+003,2.210675e+003,2.896140e+003
1.319762e+003,1.477730e+003,1.376506e+003,1.120473e+003,1.104914e+003,1.392065e+003,,1.669180e+002,2.955460e+003,2.753013e+003,2.240946e+003,2.209828e+003,2.784131e+003
1.319862e+003,1.309660e+003,1.329952e+003,1.118309e+003,1.104681e+003,1.343579e+003,,1.668180e+002,2.619320e+003,2.659904e+003,2.236618e+003,2.209363e+003,2.687159e+003
1.319962e+003,1.363170e+003,1.290014e+003,1.116869e+003,1.104388e+003,1.302496e+003,,1.667180e+002,2.726340e+003,2.580027e+003,2.233739e+003,2.208775e+003,2.604991e+003
1.320062e+003,1.272750e+003,1.256450e+003,1.115000e+003,1.104196e+003,1.267254e+003,,1.666180e+002,2.545500e+003,2.512900e+003,2.230001e+003,2.208392e+003,2.534509e+003
1.320162e+003,1.292970e+003,1.228570e+003,1.113919e+003,1.103981e+003,1.238508e+003,,1.665180e+002,2.585940e+003,2.457141e+003,2.227837e+003,2.207963e+003,2.477015e+003
1.320262e+003,1.265120e+003,1.205746e+003,1.112868e+003,1.103798e+003,1.214817e+003,,1.664180e+002,2.530240e+003,2.411493e+003,2.225737e+003,2.207596e+003,2.429633e+003
1.320362e+003,1.256940e+003,1.187254e+003,1.111827e+003,1.103624e+003,1.195457e+003,,1.663180e+002,2.513880e+003,2.374508e+003,2.223655e+003,2.207248e+003,2.390914e+003
1.320462e+003,1.340210e+003,1.172307e+003,1.110870e+003,1.103355e+003,1.179823e+003,,1.662180e+002,2.680420e+003,2.344615e+003,2.221740e+003,2.206710e+003,2.359645e+003
1.320562e+003,1.255760e+003,1.160452e+003,1.110190e+003,1.103182e+003,1.167461e+003,,1.661180e+002,2.511520e+003,2.320905e+003,2.220380e+003,2.206364e+003,2.334921e+003
1.320662e+003,1.243930e+003,1.151035e+003,1.109523e+003,1.103022e+003,1.157536e+003,,1.660180e+002,2.487860e+003,2.302069e+003,2.219047e+003,2.206043e+003,2.315073e+003
1.320762e+003,1.168730e+003,1.143638e+003,1.108942e+003,1.102947e+003,1.149632e+003,,1.659180e+002,2.337460e+003,2.287275e+003,2.217883e+003,2.205894e+003,2.299265e+003
1.320862e+003,1.210130e+003,1.137716e+003,1.108476e+003,1.102825e+003,1.143367e+003,,1.658180e+002,2.420260e+003,2.275432e+003,2.216952e+003,2.205650e+003,2.286734e+003
1.320962e+003,1.161240e+003,1.133034e+003,1.108073e+003,1.102759e+003,1.138349e+003,,1.657180e+002,2.322480e+003,2.266069e+003,2.216146e+003,2.205517e+003,2.276697e+003
1.321062e+003,1.174190e+003,1.130373e+003,1.107655e+003,1.102677e+003,1.135351e+003,,1.656180e+002,2.348380e+003,2.260747e+003,2.215310e+003,2.205355e+003,2.270702e+003
1.321162e+003,1.143030e+003,1.126912e+003,1.107313e+003,1.102632e+003,1.131594e+003,,1.655180e+002,2.286060e+003,2.253825e+003,2.214625e+003,2.205263e+003,2.263187e+003
1.321262e+003,1.150530e+003,1.123839e+003,1.107018e+003,1.102577e+003,1.128279e+003,,1.654180e+002,2.301060e+003,2.247678e+003,2.214035e+003,2.205154e+003,2.256559e+003
1.321362e+003,1.218870e+003,1.121973e+003,1.106645e+003,1.102445e+003,1.126173e+003,,1.653180e+002,2.437740e+003,2.243945e+003,2.213290e+003,2.204890e+003,2.252345e+003
1.321462e+003,1.168650e+003,1.120163e+003,1.106329e+003,1.102370e+003,1.124123e+003,,1.652180e+002,2.337300e+003,2.240327e+003,2.212658e+003,2.204739e+003,2.248245e+003
1.321562e+003,1.085460e+003,1.118410e+003,1.106123e+003,1.102350e+003,1.122183e+003,,1.651180e+002,2.170920e+003,2.236820e+003,2.212246e+003,2.204701e+003,2.244365e+003
1.321662e+003,1.181880e+003,1.117088e+003,1.105853e+003,1.102260e+003,1.120681e+003,,1.650180e+002,2.363760e+003,2.234175e+003,2.211706e+003,2.204520e+003,2.241361e+003
1.321762e+003,1.121640e+003,1.116052e+003,1.105651e+003,1.102238e+003,1.119465e+003,,1.649180e+002,2.243280e+003,2.232104e+003,2.211303e+003,2.204476e+003,2.238931e+003
1.321862e+003,1.131190e+003,1.115005e+003,1.105453e+003,1.102205e+003,1.118253e+003,,1.648180e+002,2.262380e+003,2.230011e+003,2.210906e+003,2.204410e+003,2.236507e+003
1.321962e+003,1.135830e+003,1.114007e+003,1.105277e+003,1.102167e+003,1.117117e+003,,1.647180e+002,2.271660e+003,2.228015e+003,2.210554e+003,2.204334e+003,2.234234e+003
1.322062e+003,1.174410e+003,1.113252e+003,1.105057e+003,1.102085e+003,1.116224e+003,,1.646180e+002,2.348820e+003,2.226504e+003,2.210113e+003,2.204169e+003,2.232447e+003
1.322162e+003,1.123730e+003,1.112554e+003,1.104894e+003,1.102060e+003,1.115388e+003,,1.645180e+002,2.247460e+003,2.225108e+003,2.209788e+003,2.204120e+003,2.230775e+003
1.322262e+003,1.130600e+003,1.111848e+003,1.104747e+003,1.102028e+003,1.114567e+003,,1.644180e+002,2.261200e+003,2.223696e+003,2.209493e+003,2.204055e+003,2.229134e+003
1.322362e+003,1.096720e+003,1.111288e+003,1.104632e+003,1.102022e+003,1.113898e+003,,1.643180e+002,2.193440e+003,2.222575e+003,2.209264e+003,2.204043e+003,2.227796e+003
1.322462e+003,1.094550e+003,1.110798e+003,1.104514e+003,1.102013e+003,1.113299e+003,,1.642180e+002,2.189100e+003,2.221596e+003,2.209029e+003,2.204026e+003,2.226599e+003
1.322562e+003,1.093220e+003,1.110307e+003,1.104401e+003,1.102003e+003,1.112705e+003,,1.641180e+002,2.186440e+003,2.220613e+003,2.208803e+003,2.204006e+003,2.225410e+003
1.322662e+003,1.184050e+003,1.109742e+003,1.104221e+003,1.101910e+003,1.112053e+003,,1.640180e+002,2.368100e+003,2.219484e+003,2.208441e+003,2.203820e+003,2.224105e+003
1.322762e+003,1.116670e+003,1.109366e+003,1.104116e+003,1.101893e+003,1.111589e+003,,1.639180e+002,2.233340e+003,2.218732e+003,2.208233e+003,2.203786e+003,2.223179e+003
1.322862e+003,1.075900e+003,1.108978e+003,1.103999e+003,1.101864e+003,1.111113e+003,,1.638180e+002,2.151800e+003,2.217955e+003,2.207999e+003,2.203727e+003,2.222227e+003
1.322962e+003,1.189030e+003,1.108520e+003,1.103824e+003,1.101764e+003,1.110579e+003,,1.637180e+002,2.378060e+003,2.217039e+003,2.207649e+003,2.203529e+003,2.221159e+003
1.323062e+003,1.128540e+003,1.108175e+003,1.103722e+003,1.101734e+003,1.110163e+003,,1.636180e+002,2.257080e+003,2.216350e+003,2.207445e+003,2.203468e+003,2.220327e+003
1.323162e+003,1.142510e+003,1.107852e+003,1.103605e+003,1.101688e+003,1.109769e+003,,1.635180e+002,2.285020e+003,2.215705e+003,2.207209e+003,2.203375e+003,2.219539e+003
1.323262e+003,1.086980e+003,1.107559e+003,1.103519e+003,1.101671e+003,1.109407e+003,,1.634180e+002,2.173960e+003,2.215119e+003,2.207038e+003,2.203342e+003,2.218814e+003
1.323362e+003,1.149890e+003,1.107228e+003,1.103405e+003,1.101616e+003,1.109017e+003,,1.633180e+002,2.299780e+003,2.214457e+003,2.206810e+003,2.203232e+003,2.218034e+003
1.323462e+003,1.157130e+003,1.106948e+003,1.103282e+003,1.101553e+003,1.108677e+003,,1.632180e+002,2.314260e+003,2.213895e+003,2.206565e+003,2.203106e+003,2.217354e+003
1.323562e+003,1.131560e+003,1.106696e+003,1.103189e+003,1.101519e+003,1.108366e+003,,1.631180e+002,2.263120e+003,2.213392e+003,2.206378e+003,2.203038e+003,2.216732e+003
1.323662e+003,1.181190e+003,1.106388e+003,1.103046e+003,1.101428e+003,1.108005e+003,,1.630180e+002,2.362380e+003,2.212775e+003,2.206091e+003,2.202857e+003,2.216010e+003
1.323762e+003,1.123760e+003,1.106164e+003,1.102971e+003,1.101403e+003,1.107732e+003,,1.629180e+002,2.247520e+003,2.212328e+003,2.205941e+003,2.202806e+003,2.215464e+003
1.323862e+003,1.099180e+003,1.105987e+003,1.102919e+003,1.101400e+003,1.107505e+003,,1.628180e+002,2.198360e+003,2.211974e+003,2.205837e+003,2.202801e+003,2.215010e+003
1.323962e+003,1.106500e+003,1.105806e+003,1.102864e+003,1.101395e+003,1.107275e+003,,1.627180e+002,2.213000e+003,2.211612e+003,2.205728e+003,2.202789e+003,2.214551e+003
1.324062e+003,1.119270e+003,1.105611e+003,1.102802e+003,1.101374e+003,1.107038e+003,,1.626180e+002,2.238540e+003,2.211221e+003,2.205603e+003,2.202749e+003,2.214076e+003
1.324162e+003,1.070240e+003,1.074331e+003,1.071625e+003,1.070240e+003,1.075717e+003,,1.625180e+002,2.140480e+003,2.148662e+003,2.143251e+003,2.140480e+003,2.151433e+003
1.324262e+003,1.090840e+003,1.094788e+003,1.092183e+003,1.090840e+003,1.096132e+003,,1.624180e+002,2.181680e+003,2.189576e+003,2.184367e+003,2.181680e+003,2.192263e+003
1.324362e+003,1.099830e+003,1.103635e+003,1.101135e+003,1.099830e+003,1.104940e+003,,1.623180e+002,2.199660e+003,2.207271e+003,2.202270e+003,2.199660e+003,2.209881e+003
1.324462e+003,1.068880e+003,1.072552e+003,1.070149e+003,1.068880e+003,1.073821e+003,,1.622180e+002,2.137760e+003,2.145104e+003,2.140298e+003,2.137760e+003,2.147642e+003
1.324562e+003,1.109680e+003,1.113234e+003,1.110913e+003,1.109680e+003,1.114467e+003,,1.621180e+002,2.219360e+003,2.226467e+003,2.221826e+003,2.219360e+003,2.228934e+003
1.324662e+003,1.121000e+003,1.124435e+003,1.122197e+003,1.121000e+003,1.125633e+003,,1.620180e+002,2.242000e+003,2.248871e+003,2.244395e+003,2.242000e+003,2.251265e+003
1.324762e+003,1.092600e+003,1.095917e+003,1.093767e+003,1.092600e+003,1.097083e+003,,1.619180e+002,2.185200e+003,2.191834e+003,2.187533e+003,2.185200e+003,2.194167e+003
1.324862e+003,1.113480e+003,1.116695e+003,1.114616e+003,1.113480e+003,1.117830e+003,,1.618180e+002,2.226960e+003,2.233390e+003,2.229231e+003,2.226960e+003,2.235661e+003
1.324962e+003,1.081710e+003,1.084826e+003,1.082815e+003,1.081710e+003,1.085930e+003,,1.617180e+002,2.163420e+003,2.169651e+003,2.165629e+003,2.163420e+003,2.171861e+003
1.325062e+003,1.067040e+003,1.070057e+003,1.068116e+003,1.067040e+003,1.071132e+003,,1.616180e+002,2.134080e+003,2.140113e+003,2.136232e+003,2.134080e+003,2.142265e+003
